#     FILENAME=Skynet_59007_gl8_45079_54663.A.spect.cal.txt
#     BASENAME=Skynet_59007_gl8_45079_54663
#      CONTROL=SKYNET
#     PROJCODE=Skynet_59007_gl8_45079
#     DATAROOT=/raid/scratch/cyborg/SkynetData
#      DATADIR=/raid/scratch/cyborg
#     DATADIR2=/raid/scratch/cyborg/SkynetData/Skynet_59007_gl8_45079/Cyborg
#     SCANNAME=2018_05_24_20
#     SRC_NAME=gl8
#     OBSERVER=reichart_2118
#     DATE_OBS=2020-06-07T04:27:14.570
#        OBSID=45079
#      SCANNUM=54663
#          MJD=59007.1855853
#          UTC=16035
#     SCANTYPE=track
#     DATAMODE=HIRES
#     RECEIVER=Rx1_2
#      OBSFREQ=1395.0000
# Actual_FREQ1=1421.8800,
# Actual_FREQ2=1406.2550
#    LO1Tuning=6856.2600
#     RFFILTER=1355_1435
#        OBSBW=-15.6250
#     EFFBANDW=15.6250
#        NCHAN=1024
#    STARTCHAN=51
#     STOPCHAN=972
#         TINT=0.3000
#         TBIN=0.00013107
#       ACCLEN=2048 
#     DURATION=17.40
#     EXPOSURE=2.10
#        FOCUS=37.093
#       RA,DEC=18:03:50.38, -22:02:06.55
#      RA(deg)=270.90050
#     DEC(deg)=-22.03360
#   WIDTH(deg)=0.0056x0.0020
#    AZIM(deg)=150.8630
#    ELEV(deg)=23.8592
#     COORDREF=LNG_LAT
#         HREF=8.0000
#         VREF=0.0000
#      RADESYS=FK5
#       OFFSYS=RADEC
#      EQUINOX=2000.00
#     IFATTENS=23.00, 7.00
#   BALANCELEV=1.200 
#   POWER_XLYR=[1.15, 1.06] 
#       VELDEF=RADI-OBS 
#     VELOCITY=0.000 
#         NPOL=2 
#      POLMODE=Linear 
#      POLTYPE=XXYY 
#      WARNING=None 
#     NOISECAL=HI 
#       PRECAL=2 
#      POSTCAL=2 
#     CRYOTEMP=15 
#      BOXTEMP=33 
#         TSYS=XX1:59.26, YY1:57.14
#         TSYS=XX2:54.67, YY2:64.67
#         TCAL=XX1:9.17, YY1:10.07
#         TCAL=XX2:9.16, YY2:9.99
# Calibrated spectra 
#                
#                
#Freq1(MHz)         XX1          YY1   Freq2(MHz)       XX2         YY2 
   1428.91430      30.0829      36.1401    1413.28930      32.4772      48.8851
   1428.89904      29.7615      36.8146    1413.27404      32.2518      49.1224
   1428.88378      30.0243      36.6995    1413.25878      32.7942      48.6713
   1428.86853      30.0349      36.9551    1413.24353      32.9436      49.3544
   1428.85327      30.0073      37.0366    1413.22827      33.4013      49.1229
   1428.83801      30.1884      37.0304    1413.21301      33.6076      50.2809
   1428.82275      30.5770      37.3893    1413.19775      33.7197      50.0632
   1428.80749      30.7274      37.5399    1413.18249      33.8322      50.2067
   1428.79223      30.6328      37.7908    1413.16723      33.9120      50.1811
   1428.77697      30.7816      37.9795    1413.15197      33.9623      50.6813
   1428.76171      31.3570      37.9962    1413.13671      34.3371      50.2523
   1428.74646      31.1161      38.6838    1413.12146      34.4113      51.8881
   1428.73120      30.9419      38.4873    1413.10620      34.7442      51.9576
   1428.71594      31.4615      38.7774    1413.09094      34.8298      51.3614
   1428.70068      31.3299      39.1601    1413.07568      34.9487      51.9185
   1428.68542      31.2279      39.3335    1413.06042      35.2712      52.4211
   1428.67016      31.7524      39.6048    1413.04516      35.3676      52.5250
   1428.65490      31.7298      40.1626    1413.02990      35.8821      53.1012
   1428.63964      31.5838      39.7648    1413.01464      35.9360      53.3412
   1428.62438      32.0062      40.3375    1412.99938      36.1416      53.2293
   1428.60913      32.0698      40.1907    1412.98413      36.3755      53.5931
   1428.59387      32.4539      40.5760    1412.96887      36.4479      53.7197
   1428.57861      32.3621      41.1947    1412.95361      36.5594      53.6966
   1428.56335      32.2099      40.9818    1412.93835      36.8041      54.3497
   1428.54809      32.3586      41.4807    1412.92309      36.9911      54.2914
   1428.53283      32.8741      41.5439    1412.90783      37.0793      55.2812
   1428.51757      32.9019      41.9077    1412.89257      37.1988      54.9046
   1428.50231      33.0540      42.0138    1412.87731      37.9765      55.2576
   1428.48706      33.3449      42.5945    1412.86206      37.9878      55.9424
   1428.47180      33.7825      42.5673    1412.84680      38.1832      55.9680
   1428.45654      33.3824      42.9473    1412.83154      38.1889      56.3652
   1428.44128      33.3903      43.3007    1412.81628      38.6060      56.7414
   1428.42602      34.0619      43.8536    1412.80102      38.7227      57.0881
   1428.41076      34.2548      43.7315    1412.78576      38.7692      56.9808
   1428.39550      34.0728      44.1264    1412.77050      39.0653      57.1784
   1428.38024      34.5971      44.5739    1412.75524      39.3224      58.4277
   1428.36499      34.1369      44.6858    1412.73999      39.4561      57.9698
   1428.34973      34.9074      45.1390    1412.72473      39.9205      57.9295
   1428.33447      34.6582      45.0296    1412.70947      39.8218      58.9440
   1428.31921      35.1788      45.6437    1412.69421      40.0561      58.6556
   1428.30395      35.1136      45.7999    1412.67895      40.3508      58.8034
   1428.28869      35.1414      46.2009    1412.66369      40.4080      59.3032
   1428.27343      35.6545      46.4285    1412.64843      40.5681      58.8435
   1428.25817      35.6446      46.1704    1412.63317      40.7684      59.8041
   1428.24292      35.8390      46.9569    1412.61792      41.2078      60.0452
   1428.22766      35.9227      47.2161    1412.60266      41.3529      60.5564
   1428.21240      36.3055      47.6181    1412.58740      41.1067      60.9588
   1428.19714      36.0833      47.8183    1412.57214      41.6878      60.5555
   1428.18188      36.1648      47.7169    1412.55688      42.1732      60.4879
   1428.16662      36.7216      48.5643    1412.54162      42.3450      61.5514
   1428.15136      36.7558      48.5869    1412.52636      42.0912      61.0327
   1428.13610      37.4466      48.7046    1412.51110      42.1601      61.3129
   1428.12084      37.6285      49.1769    1412.49584      42.4499      61.7242
   1428.10559      37.2333      49.3524    1412.48059      43.0488      62.3904
   1428.09033      37.1339      49.6862    1412.46533      42.9957      63.2492
   1428.07507      37.3193      49.6342    1412.45007      42.9963      62.6307
   1428.05981      37.4865      50.9172    1412.43481      43.4655      62.6234
   1428.04455      38.1371      50.4605    1412.41955      43.5319      63.3571
   1428.02929      38.5755      51.6190    1412.40429      43.7955      63.4787
   1428.01403      38.1775      51.1617    1412.38903      43.6847      63.6075
   1427.99877      38.0295      51.3367    1412.37377      44.8552      63.7468
   1427.98352      38.5806      51.8279    1412.35852      44.5456      64.2591
   1427.96826      38.7318      51.7043    1412.34326      44.5521      64.6142
   1427.95300      38.9120      52.2071    1412.32800      43.8912      64.5994
   1427.93774      38.7487      52.7395    1412.31274      44.8460      64.6700
   1427.92248      39.3484      53.1709    1412.29748      45.1122      65.1164
   1427.90722      39.1869      53.1682    1412.28222      45.1039      65.5844
   1427.89196      39.2638      53.4782    1412.26696      45.0343      65.5584
   1427.87670      39.6440      53.5665    1412.25170      45.6429      65.1782
   1427.86145      39.8072      54.4728    1412.23645      45.8327      65.6252
   1427.84619      39.8783      53.9960    1412.22119      45.7460      66.0103
   1427.83093      40.1267      54.8215    1412.20593      46.5462      65.8654
   1427.81567      40.3366      55.5420    1412.19067      46.6412      66.1700
   1427.80041      40.6010      54.6971    1412.17541      46.7995      66.5341
   1427.78515      40.6104      55.4198    1412.16015      46.0865      66.3289
   1427.76989      40.6787      55.7905    1412.14489      46.9169      66.6723
   1427.75463      40.7674      56.1955    1412.12963      46.9491      67.2661
   1427.73937      41.2717      56.6346    1412.11437      46.8914      68.0454
   1427.72412      40.9976      56.4730    1412.09912      47.1597      67.5723
   1427.70886      41.5530      56.5524    1412.08386      47.3685      67.4352
   1427.69360      41.6455      57.2431    1412.06860      47.3610      68.3337
   1427.67834      41.4704      56.5119    1412.05334      47.4371      67.6275
   1427.66308      41.4799      56.7660    1412.03808      47.6971      68.2123
   1427.64782      42.0532      57.8212    1412.02282      48.1137      68.4278
   1427.63256      41.7954      58.0752    1412.00756      47.7618      68.3007
   1427.61730      42.1837      58.4088    1411.99230      48.1927      68.0858
   1427.60205      42.5572      58.4345    1411.97705      48.2658      68.6828
   1427.58679      42.1189      58.5040    1411.96179      48.0991      69.3289
   1427.57153      42.6736      58.6511    1411.94653      48.9323      68.6583
   1427.55627      42.9259      59.2964    1411.93127      49.2530      69.4698
   1427.54101      42.7289      58.7794    1411.91601      48.7464      69.8077
   1427.52575      43.1504      59.5107    1411.90075      48.9587      69.6609
   1427.51049      42.9188      59.6565    1411.88549      49.0076      69.8991
   1427.49523      43.1438      60.1101    1411.87023      48.8037      69.4469
   1427.47998      42.9318      60.7652    1411.85498      48.9814      69.4839
   1427.46472      43.2048      60.5398    1411.83972      49.2591      69.6323
   1427.44946      43.7444      60.3599    1411.82446      49.2290      69.4122
   1427.43420      43.4380      59.9813    1411.80920      49.6683      70.4045
   1427.41894      43.7772      61.0236    1411.79394      49.2516      70.2634
   1427.40368      43.7125      61.0109    1411.77868      50.0452      70.5071
   1427.38842      44.1641      61.2944    1411.76342      49.6977      70.6484
   1427.37316      43.8703      61.0630    1411.74816      49.7835      70.5197
   1427.35791      44.7543      61.8115    1411.73291      50.1333      70.4847
   1427.34265      44.7331      61.8976    1411.71765      50.2460      70.6685
   1427.32739      44.5007      62.2607    1411.70239      50.6044      71.0188
   1427.31213      44.5070      61.7086    1411.68713      49.8465      71.0778
   1427.29687      44.6508      61.9996    1411.67187      51.0392      70.7114
   1427.28161      45.0824      62.4563    1411.65661      50.6178      71.5101
   1427.26635      44.7963      63.3719    1411.64135      50.2597      70.9824
   1427.25109      45.2580      63.0449    1411.62609      51.0016      70.7944
   1427.23583      45.0804      62.3816    1411.61083      51.2526      71.8775
   1427.22058      45.5207      63.4566    1411.59558      51.1541      71.8077
   1427.20532      45.4409      63.2302    1411.58032      50.4031      71.4103
   1427.19006      45.6091      63.0008    1411.56506      50.8960      72.5837
   1427.17480      45.4192      63.9194    1411.54980      51.1981      71.9185
   1427.15954      45.7781      64.3293    1411.53454      51.4531      71.7319
   1427.14428      46.1446      63.9226    1411.51928      51.4866      71.4590
   1427.12902      46.0498      64.2468    1411.50402      51.8213      71.0494
   1427.11376      46.0663      64.6426    1411.48876      51.3692      71.8564
   1427.09851      45.5664      64.2730    1411.47351      51.1271      71.9182
   1427.08325      46.5191      64.2108    1411.45825      51.7150      72.1111
   1427.06799      46.2007      64.7499    1411.44299      52.0411      71.4320
   1427.05273      46.4825      64.5725    1411.42773      51.3681      71.4299
   1427.03747      47.0826      64.5808    1411.41247      52.0021      71.4895
   1427.02221      46.8166      65.2606    1411.39721      51.7136      71.6316
   1427.00695      46.3109      65.3764    1411.38195      52.1627      71.6863
   1426.99169      46.8352      65.1204    1411.36669      51.6013      71.7367
   1426.97644      46.9471      65.2437    1411.35144      51.9396      72.1021
   1426.96118      47.4362      65.7414    1411.33618      51.6272      71.5935
   1426.94592      47.3404      65.2786    1411.32092      52.5214      71.2714
   1426.93066      47.4452      65.1178    1411.30566      52.5573      71.3942
   1426.91540      47.4897      65.7660    1411.29040      52.7654      71.7499
   1426.90014      47.4249      65.5697    1411.27514      52.3275      71.4464
   1426.88488      47.6767      66.3971    1411.25988      52.0952      71.4038
   1426.86962      47.0904      65.5790    1411.24462      52.0901      71.4005
   1426.85437      48.0607      66.0300    1411.22937      52.4989      71.5058
   1426.83911      47.7241      65.6943    1411.21411      51.8162      71.4192
   1426.82385      47.8387      66.1670    1411.19885      51.8107      70.9880
   1426.80859      48.1440      66.3676    1411.18359      52.5026      71.7629
   1426.79333      48.4704      66.9216    1411.16833      52.5188      71.3932
   1426.77807      48.6372      66.3317    1411.15307      52.4003      71.0604
   1426.76281      48.4799      66.3183    1411.13781      52.6327      71.5651
   1426.74755      48.1579      66.2902    1411.12255      53.1769      71.1388
   1426.73229      48.9009      67.4400    1411.10729      52.6330      71.5328
   1426.71704      48.6462      66.6506    1411.09204      52.2138      71.1256
   1426.70178      48.7166      66.7426    1411.07678      52.5075      71.0550
   1426.68652      48.7215      66.0534    1411.06152      53.2164      71.0919
   1426.67126      48.7511      66.7692    1411.04626      52.7843      70.7868
   1426.65600      48.8103      67.3055    1411.03100      52.5217      70.7639
   1426.64074      49.0612      67.3041    1411.01574      53.1701      71.0231
   1426.62548      48.8062      67.0393    1411.00048      52.3457      71.5758
   1426.61022      49.0912      67.0292    1410.98522      52.2029      70.1439
   1426.59497      49.3844      67.4155    1410.96997      52.7690      70.5145
   1426.57971      49.1750      66.6407    1410.95471      52.4634      70.3934
   1426.56445      48.7413      67.2942    1410.93945      53.0259      70.2953
   1426.54919      49.3273      66.8322    1410.92419      53.0137      70.0765
   1426.53393      49.3532      67.2940    1410.90893      52.9046      70.5474
   1426.51867      49.4765      66.6885    1410.89367      52.7139      70.8220
   1426.50341      49.6100      66.8845    1410.87841      52.7253      70.3269
   1426.48815      49.7294      66.5373    1410.86315      52.8291      69.6872
   1426.47290      49.9661      66.8794    1410.84790      53.2601      70.2989
   1426.45764      49.6268      67.1174    1410.83264      52.7952      69.4752
   1426.44238      50.0570      67.7483    1410.81738      52.4137      70.1400
   1426.42712      49.9374      66.9344    1410.80212      52.5614      69.4802
   1426.41186      49.8792      67.4864    1410.78686      53.5409      69.7582
   1426.39660      50.2528      67.4244    1410.77160      53.3441      69.1959
   1426.38134      50.0969      66.1392    1410.75634      52.9119      69.9366
   1426.36608      50.6777      66.8366    1410.74108      52.9262      69.9146
   1426.35083      50.5475      67.8088    1410.72583      52.8703      69.5371
   1426.33557      50.7499      67.6447    1410.71057      52.4364      68.7809
   1426.32031      50.8476      67.6308    1410.69531      52.0381      68.7247
   1426.30505      50.8083      66.7625    1410.68005      52.8953      67.7467
   1426.28979      50.8166      66.8821    1410.66479      52.9094      68.6975
   1426.27453      50.7787      66.9415    1410.64953      52.6694      68.5669
   1426.25927      50.4059      66.9738    1410.63427      52.7856      69.1522
   1426.24401      51.0073      67.0862    1410.61901      52.3498      68.4822
   1426.22875      51.8903      67.1369    1410.60375      52.5696      68.7824
   1426.21350      50.9025      66.9466    1410.58850      53.2655      68.2418
   1426.19824      51.1268      66.9332    1410.57324      53.1362      67.8529
   1426.18298      50.7377      66.9946    1410.55798      52.9786      67.8124
   1426.16772      51.8949      66.6849    1410.54272      53.3812      68.1614
   1426.15246      51.0421      66.2625    1410.52746      52.6577      67.3801
   1426.13720      51.6151      67.0990    1410.51220      52.9980      67.4065
   1426.12194      51.3983      66.6202    1410.49694      52.9368      67.7339
   1426.10668      51.7971      66.9159    1410.48168      53.1251      67.6977
   1426.09143      51.6471      66.5739    1410.46643      53.3315      67.5480
   1426.07617      51.4290      65.9927    1410.45117      52.9925      67.7423
   1426.06091      52.0201      66.1953    1410.43591      53.0898      67.2833
   1426.04565      51.4134      65.9735    1410.42065      52.9565      67.6531
   1426.03039      51.7859      66.2386    1410.40539      52.9156      66.9618
   1426.01513      51.8071      66.4475    1410.39013      52.8314      66.3164
   1425.99987      52.1260      66.4338    1410.37487      53.0740      66.7448
   1425.98461      52.4319      65.6005    1410.35961      53.4470      66.8392
   1425.96936      52.2806      66.2679    1410.34436      52.8270      67.1474
   1425.95410      52.4000      65.5985    1410.32910      52.6809      66.4166
   1425.93884      51.9884      66.0559    1410.31384      52.7212      66.1838
   1425.92358      51.8079      66.0288    1410.29858      52.5316      66.4831
   1425.90832      52.0956      65.7363    1410.28332      53.3285      66.3705
   1425.89306      51.7216      65.9984    1410.26806      53.0621      65.2607
   1425.87780      52.2107      65.4591    1410.25280      52.5613      65.7450
   1425.86254      52.8107      65.6978    1410.23754      52.8441      65.7225
   1425.84729      52.5420      65.8669    1410.22229      52.2000      65.4659
   1425.83203      52.5779      64.8921    1410.20703      52.6265      65.0434
   1425.81677      52.7540      65.5097    1410.19177      52.8406      64.8560
   1425.80151      53.3843      65.4235    1410.17651      52.8501      65.5879
   1425.78625      52.5190      65.4529    1410.16125      52.7127      64.0762
   1425.77099      52.9285      65.2350    1410.14599      52.6225      65.2523
   1425.75573      53.1379      65.7378    1410.13073      52.7906      65.3310
   1425.74047      52.8545      65.6882    1410.11547      52.5598      64.6814
   1425.72521      53.0455      64.7869    1410.10021      52.6344      64.0362
   1425.70996      53.4018      64.6521    1410.08496      52.5542      64.8246
   1425.69470      53.2394      64.6372    1410.06970      52.9063      63.3976
   1425.67944      52.8897      64.9328    1410.05444      52.8859      63.7212
   1425.66418      53.0727      64.9970    1410.03918      52.6859      63.9689
   1425.64892      54.0026      64.0240    1410.02392      52.8754      63.6759
   1425.63366      53.5567      64.5500    1410.00866      53.2013      63.7244
   1425.61840      53.4694      65.3639    1409.99340      52.4349      63.4449
   1425.60314      54.0010      64.8244    1409.97814      52.8312      63.1878
   1425.58789      53.6673      64.7144    1409.96289      52.7384      63.3207
   1425.57263      54.1682      64.4853    1409.94763      52.7199      63.2043
   1425.55737      54.1292      64.3270    1409.93237      52.8184      62.9141
   1425.54211      53.9421      64.4601    1409.91711      52.5712      63.5944
   1425.52685      53.8337      63.5984    1409.90185      52.9382      62.4785
   1425.51159      53.5244      63.8288    1409.88659      52.1384      62.6253
   1425.49633      54.2307      63.6413    1409.87133      52.8285      62.3561
   1425.48107      53.6437      63.7416    1409.85607      52.9702      62.4553
   1425.46582      54.6872      63.3799    1409.84082      53.1521      62.4373
   1425.45056      54.4884      63.5998    1409.82556      53.0597      61.7718
   1425.43530      53.8407      63.6987    1409.81030      52.9858      62.7018
   1425.42004      54.1698      63.7600    1409.79504      52.6194      62.0698
   1425.40478      54.5462      63.9879    1409.77978      52.2612      61.9302
   1425.38952      54.1702      63.7167    1409.76452      52.9151      61.4622
   1425.37426      54.5550      63.4657    1409.74926      52.9563      61.0257
   1425.35900      54.9388      63.3872    1409.73400      52.4572      61.5492
   1425.34375      54.8654      62.9091    1409.71875      52.5235      61.3837
   1425.32849      55.0817      63.0740    1409.70349      52.9097      60.9323
   1425.31323      55.0219      63.3743    1409.68823      52.8288      61.0498
   1425.29797      54.8779      63.7942    1409.67297      52.5629      60.9551
   1425.28271      55.5413      62.6904    1409.65771      52.9308      60.4702
   1425.26745      54.6823      62.6654    1409.64245      52.7290      60.5660
   1425.25219      55.3994      62.9357    1409.62719      52.7792      60.6407
   1425.23693      55.5579      62.4843    1409.61193      52.3826      59.7744
   1425.22167      55.6587      62.5882    1409.59667      53.0020      60.2640
   1425.20642      55.7040      62.1880    1409.58142      52.4271      59.6652
   1425.19116      55.3399      62.0379    1409.56616      52.9139      60.2388
   1425.17590      55.9643      62.4095    1409.55090      52.7225      59.3364
   1425.16064      56.0724      61.8376    1409.53564      52.0038      59.3973
   1425.14538      56.0745      62.2616    1409.52038      52.5484      58.7896
   1425.13012      56.4876      62.0075    1409.50512      53.0509      59.7455
   1425.11486      56.5976      61.6716    1409.48986      52.4037      59.4182
   1425.09960      56.5219      61.4965    1409.47460      52.8398      59.3478
   1425.08435      55.9674      61.8924    1409.45935      52.7883      59.4341
   1425.06909      56.2286      61.6726    1409.44409      53.1031      58.9057
   1425.05383      56.6582      61.5266    1409.42883      52.4702      59.3457
   1425.03857      56.4339      61.8600    1409.41357      52.5146      59.1544
   1425.02331      56.2972      61.4185    1409.39831      52.7864      58.7429
   1425.00805      56.2207      61.5267    1409.38305      52.4286      58.1130
   1424.99279      56.9380      61.1846    1409.36779      52.9478      57.9549
   1424.97753      56.7207      60.9523    1409.35253      53.0152      58.2429
   1424.96228      56.9147      61.1530    1409.33728      53.2653      58.8902
   1424.94702      57.0838      61.1823    1409.32202      53.2706      57.9739
   1424.93176      56.3872      61.1680    1409.30676      52.9850      58.1085
   1424.91650      57.1786      61.2231    1409.29150      53.3996      57.9589
   1424.90124      57.5397      60.1900    1409.27624      52.9605      57.5712
   1424.88598      57.3097      60.7781    1409.26098      53.5829      57.7954
   1424.87072      56.6462      59.9098    1409.24572      53.0884      57.2026
   1424.85546      58.0570      60.2693    1409.23046      53.3071      57.5202
   1424.84021      57.7854      60.6102    1409.21521      52.8554      57.7967
   1424.82495      57.4075      60.4888    1409.19995      52.8274      57.4427
   1424.80969      57.8383      60.7515    1409.18469      53.2678      56.7677
   1424.79443      57.7741      60.3926    1409.16943      53.5310      56.3778
   1424.77917      57.3402      60.2792    1409.15417      52.7134      56.5617
   1424.76391      57.7736      60.3101    1409.13891      53.0734      56.7763
   1424.74865      57.3487      60.1242    1409.12365      53.2909      56.9330
   1424.73339      58.4656      60.0974    1409.10839      53.6249      56.5663
   1424.71813      58.4808      59.9218    1409.09313      53.2730      56.5062
   1424.70288      58.8128      59.8144    1409.07788      53.3200      56.3147
   1424.68762      59.1509      60.3571    1409.06262      53.2195      55.9818
   1424.67236      58.3095      59.4153    1409.04736      53.7737      56.2291
   1424.65710      58.9569      59.0181    1409.03210      53.5074      56.9326
   1424.64184      58.9697      59.5680    1409.01684      53.3818      56.2262
   1424.62658      58.3771      59.3607    1409.00158      53.2211      56.2616
   1424.61132      59.2277      59.4086    1408.98632      53.7529      55.9257
   1424.59606      59.0118      59.2725    1408.97106      53.8044      55.7721
   1424.58081      58.6795      59.0606    1408.95581      53.8567      55.1612
   1424.56555      58.9134      59.3165    1408.94055      53.4883      55.3137
   1424.55029      59.2059      59.0407    1408.92529      52.9934      55.5735
   1424.53503      59.3504      58.8719    1408.91003      53.2681      55.0585
   1424.51977      59.3644      58.9898    1408.89477      53.6802      55.1293
   1424.50451      58.8893      58.3203    1408.87951      53.3031      55.2672
   1424.48925      59.2919      58.7682    1408.86425      53.7974      55.0576
   1424.47399      60.0623      59.1837    1408.84899      53.5631      54.9237
   1424.45874      60.2219      58.8357    1408.83374      53.4758      54.1569
   1424.44348      59.8495      58.5919    1408.81848      53.9081      54.9761
   1424.42822      60.4380      58.7383    1408.80322      53.7980      54.2999
   1424.41296      59.1943      57.8577    1408.78796      54.1026      54.0095
   1424.39770      59.7195      58.4601    1408.77270      53.8821      54.2370
   1424.38244      60.0166      58.2530    1408.75744      54.3329      54.1471
   1424.36718      59.6930      58.0492    1408.74218      53.9202      54.5543
   1424.35192      59.9361      58.3508    1408.72692      54.1972      53.7391
   1424.33667      60.2994      57.6759    1408.71167      53.7320      53.6105
   1424.32141      60.1738      58.0736    1408.69641      54.6054      54.0216
   1424.30615      60.4829      58.1314    1408.68115      54.2150      53.2555
   1424.29089      60.7386      57.3480    1408.66589      54.2138      53.6507
   1424.27563      60.4846      57.0513    1408.65063      54.3560      53.7251
   1424.26037      60.3025      57.6504    1408.63537      54.4413      53.0932
   1424.24511      60.8636      57.2833    1408.62011      54.4472      53.0052
   1424.22985      61.1529      57.7656    1408.60485      54.4615      53.2496
   1424.21459      60.4523      56.8911    1408.58959      54.3351      52.7854
   1424.19934      61.2866      57.3693    1408.57434      54.5568      53.2867
   1424.18408      61.2789      56.8885    1408.55908      54.0008      52.7596
   1424.16882      61.0188      57.1114    1408.54382      54.1948      52.8965
   1424.15356      61.1349      56.7088    1408.52856      55.1046      53.0383
   1424.13830      61.7981      57.0445    1408.51330      54.7910      53.3628
   1424.12304      61.9372      56.7233    1408.49804      55.1595      52.6917
   1424.10778      61.1460      56.6783    1408.48278      55.4715      53.1072
   1424.09252      61.5042      56.5191    1408.46752      54.6977      52.8989
   1424.07727      61.1691      56.6757    1408.45227      54.5983      52.2975
   1424.06201      62.0362      56.8549    1408.43701      55.1677      52.2037
   1424.04675      61.8112      56.6346    1408.42175      55.1621      52.3911
   1424.03149      62.0573      56.5262    1408.40649      55.4433      52.4238
   1424.01623      61.6261      56.4771    1408.39123      55.1269      52.0723
   1424.00097      62.0851      56.6761    1408.37597      55.2572      52.7354
   1423.98571      62.0804      56.1630    1408.36071      55.3097      52.0068
   1423.97045      62.2544      55.4241    1408.34545      55.1668      51.7101
   1423.95520      62.2813      56.0853    1408.33020      55.4550      51.2607
   1423.93994      62.8864      55.6829    1408.31494      54.8942      51.3493
   1423.92468      62.2086      56.0032    1408.29968      55.7508      51.6740
   1423.90942      62.2680      55.0954    1408.28442      55.7326      51.6898
   1423.89416      62.6057      55.2932    1408.26916      55.1564      51.4906
   1423.87890      61.6379      55.5578    1408.25390      55.4069      51.2327
   1423.86364      62.6575      55.7866    1408.23864      55.7920      50.9539
   1423.84838      62.2526      55.4001    1408.22338      55.1032      51.6262
   1423.83312      62.9844      55.2811    1408.20812      55.3967      51.3954
   1423.81787      62.6378      54.9675    1408.19287      55.9106      50.8197
   1423.80261      62.6565      55.1043    1408.17761      56.1519      51.2264
   1423.78735      62.9371      55.2754    1408.16235      56.4979      50.9632
   1423.77209      63.1811      55.2134    1408.14709      55.8847      51.0413
   1423.75683      62.8353      54.8409    1408.13183      55.8466      50.8742
   1423.74157      62.9368      54.5663    1408.11657      56.5443      50.8569
   1423.72631      63.0041      54.1872    1408.10131      55.9875      51.1852
   1423.71105      63.0190      54.7280    1408.08605      56.3026      50.4995
   1423.69580      63.3071      54.6695    1408.07080      56.3533      50.3743
   1423.68054      62.6292      54.5559    1408.05554      56.0476      50.7999
   1423.66528      62.3263      54.4775    1408.04028      56.0980      50.4444
   1423.65002      63.1913      54.1729    1408.02502      56.4924      50.6642
   1423.63476      62.7856      54.0728    1408.00976      57.1887      50.4830
   1423.61950      63.4930      54.0838    1407.99450      56.6306      50.7037
   1423.60424      63.1492      54.5173    1407.97924      56.9719      50.6175
   1423.58898      62.5193      53.9198    1407.96398      57.1008      49.9748
   1423.57373      63.9659      54.0354    1407.94873      57.0959      50.4009
   1423.55847      64.1309      54.3151    1407.93347      56.2188      49.7467
   1423.54321      63.7311      54.0811    1407.91821      57.5441      49.7016
   1423.52795      63.1510      53.6471    1407.90295      57.2043      50.1502
   1423.51269      63.6109      53.9014    1407.88769      56.8135      49.8735
   1423.49743      63.8035      53.8503    1407.87243      56.9435      49.3285
   1423.48217      64.7137      53.4481    1407.85717      57.1317      49.6342
   1423.46691      63.5317      53.4107    1407.84191      57.0204      49.4804
   1423.45166      64.0092      53.5784    1407.82666      56.3666      49.5516
   1423.43640      64.1881      53.1304    1407.81140      57.3400      49.9828
   1423.42114      64.4559      53.0748    1407.79614      57.0071      49.2861
   1423.40588      64.0557      52.8944    1407.78088      57.9660      49.3716
   1423.39062      63.9326      53.4179    1407.76562      57.2875      49.1644
   1423.37536      63.3785      52.8240    1407.75036      57.3381      49.7270
   1423.36010      63.9554      53.2893    1407.73510      57.1552      49.2678
   1423.34484      63.5410      52.7775    1407.71984      57.8459      49.0366
   1423.32958      64.3641      52.4474    1407.70458      57.5269      48.8887
   1423.31433      64.3772      52.5819    1407.68933      57.6567      49.1844
   1423.29907      63.9830      53.0338    1407.67407      57.8026      49.0861
   1423.28381      64.3407      52.4672    1407.65881      57.4450      48.7169
   1423.26855      63.9142      53.0084    1407.64355      58.0749      49.1288
   1423.25329      64.2162      52.3931    1407.62829      57.6745      48.9143
   1423.23803      64.5059      52.2786    1407.61303      58.6412      48.9227
   1423.22277      64.1037      52.1013    1407.59777      57.9499      48.4461
   1423.20751      64.2013      52.4420    1407.58251      57.7940      48.9817
   1423.19226      64.0363      52.1559    1407.56726      58.1562      48.5731
   1423.17700      64.8799      52.0208    1407.55200      58.5705      48.1981
   1423.16174      64.2507      51.4168    1407.53674      57.8202      48.5865
   1423.14648      64.0509      51.7592    1407.52148      58.2383      48.6089
   1423.13122      64.3447      52.0652    1407.50622      59.0488      48.4237
   1423.11596      64.3484      52.5155    1407.49096      58.1552      48.4388
   1423.10070      64.7721      51.6242    1407.47570      58.2540      48.4576
   1423.08544      65.4384      51.9770    1407.46044      58.3091      48.4075
   1423.07019      64.1859      51.7680    1407.44519      59.2772      48.7417
   1423.05493      63.8931      51.6431    1407.42993      58.9965      48.7993
   1423.03967      64.3153      51.5597    1407.41467      58.8514      48.1295
   1423.02441      65.1238      51.2674    1407.39941      58.9989      48.6079
   1423.00915      64.3390      51.9368    1407.38415      58.7367      47.7594
   1422.99389      64.5903      51.1458    1407.36889      59.3837      48.2943
   1422.97863      64.8983      51.2752    1407.35363      59.2626      48.1630
   1422.96337      64.7179      50.7006    1407.33837      58.9554      47.7214
   1422.94812      64.6544      51.5374    1407.32312      59.3894      48.1425
   1422.93286      64.5478      50.4803    1407.30786      59.0816      48.1723
   1422.91760      64.2179      50.9289    1407.29260      59.1062      48.0229
   1422.90234      64.8878      51.1394    1407.27734      59.4474      48.0437
   1422.88708      64.3854      50.5126    1407.26208      59.8497      48.3511
   1422.87182      65.4282      50.5403    1407.24682      59.3295      48.0244
   1422.85656      64.1988      50.7548    1407.23156      59.3270      48.3905
   1422.84130      64.4274      50.2977    1407.21630      59.7671      48.4356
   1422.82604      65.0598      50.7064    1407.20104      59.2730      47.4496
   1422.81079      64.2585      50.1440    1407.18579      59.2804      47.7465
   1422.79553      65.2243      49.9567    1407.17053      59.0976      47.5344
   1422.78027      65.5960      50.0391    1407.15527      59.5947      47.4718
   1422.76501      65.5397      50.6583    1407.14001      59.4803      48.3322
   1422.74975      65.1758      50.4643    1407.12475      59.7867      48.1951
   1422.73449      64.9146      49.5698    1407.10949      59.8668      47.6065
   1422.71923      65.0477      50.2874    1407.09423      59.9688      47.1410
   1422.70397      65.3890      50.2273    1407.07897      60.0638      47.9382
   1422.68872      65.4247      50.0683    1407.06372      59.8506      47.9043
   1422.67346      64.9324      50.1570    1407.04846      60.0925      47.7528
   1422.65820      64.8559      49.8540    1407.03320      60.2003      47.6622
   1422.64294      64.7833      49.2440    1407.01794      59.9575      47.5697
   1422.62768      65.2273      49.6694    1407.00268      60.6018      47.7804
   1422.61242      65.2471      49.6904    1406.98742      60.1989      47.7292
   1422.59716      65.0165      49.3241    1406.97216      60.5497      47.8784
   1422.58190      65.1094      49.1161    1406.95690      60.5797      47.2295
   1422.56665      65.2751      49.1245    1406.94165      59.6905      47.7193
   1422.55139      64.5196      49.5663    1406.92639      60.3641      47.4923
   1422.53613      65.0731      49.2946    1406.91113      61.4032      47.6204
   1422.52087      65.5483      48.9821    1406.89587      60.6356      47.7165
   1422.50561      65.1177      48.5931    1406.88061      60.5307      47.4443
   1422.49035      65.5745      48.6952    1406.86535      61.3690      47.2050
   1422.47509      65.0205      48.9796    1406.85009      60.8438      47.3298
   1422.45983      64.5584      48.8191    1406.83483      61.0403      47.8424
   1422.44458      65.5380      48.9715    1406.81958      60.9993      47.8483
   1422.42932      65.8104      49.3496    1406.80432      61.1918      47.5603
   1422.41406      65.0345      48.7595    1406.78906      61.0860      47.5288
   1422.39880      65.5703      48.8158    1406.77380      60.5905      47.3243
   1422.38354      66.0501      48.3824    1406.75854      60.9465      46.8832
   1422.36828      65.0887      49.1423    1406.74328      61.2478      47.4399
   1422.35302      65.2057      47.9211    1406.72802      61.4375      47.4333
   1422.33776      65.5505      48.4943    1406.71276      61.7007      47.6848
   1422.32250      65.2633      48.3082    1406.69750      61.3284      47.3018
   1422.30725      65.1788      48.5481    1406.68225      61.3155      47.3798
   1422.29199      65.1719      48.5806    1406.66699      61.2149      47.3066
   1422.27673      65.7845      48.1446    1406.65173      61.9971      47.8687
   1422.26147      65.1127      48.4114    1406.63647      61.4528      47.8035
   1422.24621      64.8384      48.2264    1406.62121      61.8328      47.7796
   1422.23095      65.3095      47.7375    1406.60595      62.0376      47.7170
   1422.21569      65.0175      48.0256    1406.59069      62.0531      47.9095
   1422.20043      65.9824      47.5710    1406.57543      62.1188      47.4544
   1422.18518      64.2466      48.0950    1406.56018      61.7047      47.5330
   1422.16992      65.4129      47.6968    1406.54492      62.0379      47.5600
   1422.15466      65.4788      47.7842    1406.52966      62.1154      47.7641
   1422.13940      65.0004      48.1421    1406.51440      61.8170      47.7996
   1422.12414      65.2282      48.2000    1406.49914      61.8411      47.9154
   1422.10888      64.8936      47.5758    1406.48388      62.3452      47.9019
   1422.09362      65.0796      47.4972    1406.46862      62.0889      47.9673
   1422.07836      65.5966      47.6246    1406.45336      62.4479      47.5654
   1422.06311      65.4831      47.1422    1406.43811      61.4000      47.2698
   1422.04785      64.9699      47.7459    1406.42285      61.6504      47.9245
   1422.03259      65.6881      47.5046    1406.40759      62.4103      47.6767
   1422.01733      65.3106      47.2431    1406.39233      62.0889      47.6126
   1422.00207      65.6454      47.8495    1406.37707      62.0366      47.9415
   1421.98681      65.0181      47.5633    1406.36181      62.6019      47.6601
   1421.97155      65.3915      47.0348    1406.34655      62.5040      47.4896
   1421.95629      65.3399      47.6437    1406.33129      62.1113      48.2942
   1421.94104      65.2194      47.2209    1406.31604      62.1807      47.4197
   1421.92578      65.6276      47.4741    1406.30078      62.6013      48.1412
   1421.91052      64.8142      47.5048    1406.28552      61.8805      48.2531
   1421.89526      64.7868      47.5876    1406.27026      62.1865      48.5201
   1421.88000      65.2053      47.0713    1406.25500      62.3341      48.5030
   1421.86474      65.6238      46.5551    1406.23974      62.4817      48.4859
   1421.84948      65.5239      47.1457    1406.22448      61.8991      48.1218
   1421.83422      65.2417      47.3994    1406.20922      62.4446      47.9066
   1421.81896      65.4236      46.7211    1406.19396      62.3876      47.8905
   1421.80371      66.3388      46.9798    1406.17871      62.7538      48.0545
   1421.78845      65.8485      47.1392    1406.16345      62.5829      47.8159
   1421.77319      65.4856      47.1674    1406.14819      62.1885      48.5979
   1421.75793      65.7904      47.0839    1406.13293      62.2919      48.1592
   1421.74267      65.3617      46.8172    1406.11767      62.8270      48.3225
   1421.72741      65.4340      47.0122    1406.10241      62.3622      48.5563
   1421.71215      65.4308      46.5866    1406.08715      62.6455      48.1313
   1421.69689      65.8042      46.8438    1406.07189      62.5095      48.4345
   1421.68164      65.8053      46.9485    1406.05664      63.1395      48.8488
   1421.66638      65.6370      46.8151    1406.04138      63.1485      48.6157
   1421.65112      65.6268      46.3461    1406.02612      63.2674      48.6578
   1421.63586      64.9187      46.7747    1406.01086      62.7878      48.5233
   1421.62060      65.6052      47.0542    1405.99560      62.5718      48.8389
   1421.60534      65.6676      46.9755    1405.98034      63.1001      48.7035
   1421.59008      65.8187      46.3577    1405.96508      63.4711      48.7351
   1421.57482      65.7263      46.5844    1405.94982      62.9757      48.9438
   1421.55957      65.7561      45.9805    1405.93457      62.8416      49.0306
   1421.54431      65.6524      46.5045    1405.91931      62.5123      48.6033
   1421.52905      65.4402      46.8222    1405.90405      62.7716      48.9299
   1421.51379      65.2270      46.3002    1405.88879      63.3084      48.9951
   1421.49853      66.2384      46.4156    1405.87353      62.3868      48.9193
   1421.48327      65.4949      46.3271    1405.85827      62.5776      49.1727
   1421.46801      65.4328      46.2637    1405.84301      63.2567      49.2756
   1421.45275      65.4023      46.5489    1405.82775      63.1663      49.4851
   1421.43750      66.0531      46.2366    1405.81250      63.0515      49.2910
   1421.42224      65.7860      46.6831    1405.79724      63.5956      48.8678
   1421.40698      65.2633      45.7888    1405.78198      63.0108      49.4644
   1421.39172      66.0609      46.4737    1405.76672      63.3822      49.5141
   1421.37646      65.8539      46.0449    1405.75146      62.5443      49.5373
   1421.36120      65.4182      46.3842    1405.73620      63.0651      50.0886
   1421.34594      65.2571      46.2839    1405.72094      63.2854      49.6200
   1421.33068      65.9131      46.1328    1405.70568      62.8580      49.6075
   1421.31542      65.7987      46.1148    1405.69042      63.1024      50.2375
   1421.30017      65.6372      46.7573    1405.67517      62.7096      49.9766
   1421.28491      65.8122      46.2188    1405.65991      63.5647      50.3929
   1421.26965      65.7882      46.2091    1405.64465      63.2917      49.9535
   1421.25439      65.1249      45.9885    1405.62939      63.2246      50.4153
   1421.23913      65.2726      46.1344    1405.61413      63.4372      50.3840
   1421.22387      66.1075      46.2423    1405.59887      62.8302      50.2380
   1421.20861      65.6443      46.0368    1405.58361      62.9245      50.2063
   1421.19335      66.5733      46.4903    1405.56835      63.1976      50.3071
   1421.17810      65.5006      46.3436    1405.55310      63.0135      50.3380
   1421.16284      65.5727      45.9386    1405.53784      62.7747      50.8240
   1421.14758      65.9707      46.2113    1405.52258      63.3531      50.5074
   1421.13232      65.8248      46.1537    1405.50732      63.2027      50.8283
   1421.11706      65.5300      46.4228    1405.49206      62.3865      50.9113
   1421.10180      66.4350      46.1391    1405.47680      63.2300      50.9163
   1421.08654      65.4612      46.0937    1405.46154      63.2172      51.1519
   1421.07128      65.1715      46.1538    1405.44628      63.1160      51.5005
   1421.05603      65.6250      46.1167    1405.43103      62.6986      50.8855
   1421.04077      66.0364      46.2317    1405.41577      63.5325      51.7300
   1421.02551      66.3495      46.4279    1405.40051      62.8483      50.9777
   1421.01025      66.1698      45.8910    1405.38525      62.4213      50.6628
   1420.99499      66.0254      46.5313    1405.36999      62.8131      51.7997
   1420.97973      65.8094      46.3731    1405.35473      63.3217      51.0806
   1420.96447      65.1421      46.0558    1405.33947      62.3706      51.2831
   1420.94921      67.1398      46.3993    1405.32421      62.5961      51.4341
   1420.93396      66.1158      46.2368    1405.30896      62.8971      51.3709
   1420.91870      65.9505      47.0333    1405.29370      62.8473      51.3162
   1420.90344      65.6994      46.8185    1405.27844      62.7529      52.0809
   1420.88818      67.0652      46.3541    1405.26318      62.8832      51.4879
   1420.87292      66.6716      46.4901    1405.24792      62.7215      51.4714
   1420.85766      65.5317      47.0425    1405.23266      63.5940      52.0488
   1420.84240      65.9785      46.6088    1405.21740      62.5678      52.1285
   1420.82714      66.3485      46.3290    1405.20214      63.0814      52.0715
   1420.81188      66.8877      46.6389    1405.18688      63.0801      52.4973
   1420.79663      66.3747      46.8470    1405.17163      62.1091      52.5610
   1420.78137      66.6310      47.2118    1405.15637      62.6369      53.0822
   1420.76611      66.6310      46.9330    1405.14111      61.7775      52.4884
   1420.75085      66.9673      46.9462    1405.12585      62.2346      53.0205
   1420.73559      67.4250      47.4223    1405.11059      62.3464      53.4142
   1420.72033      68.4050      48.1838    1405.09533      62.3752      52.5568
   1420.70507      69.5152      49.1700    1405.08007      62.6701      53.0830
   1420.68981      70.7555      49.7852    1405.06481      61.6317      53.6524
   1420.67456      73.6359      51.7969    1405.04956      62.3647      53.1685
   1420.65930      79.2584      55.2503    1405.03430      61.3319      53.2739
   1420.64404      88.0548      60.9366    1405.01904      62.0392      53.2854
   1420.62878     103.0732      72.2427    1405.00378      62.2945      53.5359
   1420.61352     123.9064      85.1677    1404.98852      62.0819      53.7016
   1420.59826     145.3037      99.1110    1404.97326      62.3044      54.1079
   1420.58300     159.7958     107.6831    1404.95800      62.4645      54.4481
   1420.56774     164.7673     110.9539    1404.94274      62.3504      54.0347
   1420.55249     165.1025     111.5809    1404.92749      61.9221      53.7957
   1420.53723     159.4373     109.8556    1404.91223      62.0841      54.1948
   1420.52197     160.3637     109.2585    1404.89697      61.8305      53.8760
   1420.50671     161.4941     110.4576    1404.88171      62.0198      54.4240
   1420.49145     163.7672     112.1776    1404.86645      61.8938      54.5041
   1420.47619     136.4942      94.2106    1404.85119      61.5535      54.6660
   1420.46093     138.0913      94.4254    1404.83593      61.8252      54.6543
   1420.44567     166.8811     115.7681    1404.82067      61.6647      54.2723
   1420.43042     155.7837     106.3240    1404.80542      61.2748      54.8094
   1420.41516     155.0981     106.7032    1404.79016      61.9274      54.3237
   1420.39990     160.7559     110.7080    1404.77490      61.2626      54.9835
   1420.38464     155.8995     106.2465    1404.75964      61.5911      54.6776
   1420.36938     138.8688      95.3570    1404.74438      61.9233      55.2658
   1420.35412     122.5273      85.5526    1404.72912      61.4294      55.2666
   1420.33886     115.7672      80.2662    1404.71386      61.2904      55.0726
   1420.32360     111.1873      78.2592    1404.69860      61.0224      55.3958
   1420.30834     106.9654      74.5795    1404.68334      61.3938      55.8006
   1420.29309     101.1395      71.2939    1404.66809      61.5269      56.0073
   1420.27783      96.1793      68.0686    1404.65283      61.1932      56.3222
   1420.26257      91.1675      64.4874    1404.63757      61.4732      56.0530
   1420.24731      85.8129      60.3726    1404.62231      61.1455      56.0440
   1420.23205      79.9302      56.7471    1404.60705      61.0507      56.6022
   1420.21679      78.5704      56.5816    1404.59179      61.1685      57.0305
   1420.20153      78.1333      55.4893    1404.57653      60.5947      56.1648
   1420.18627      76.7177      55.0466    1404.56127      60.7828      56.7865
   1420.17102      75.8631      54.1504    1404.54602      60.1221      56.7125
   1420.15576      75.3383      54.3344    1404.53076      60.2317      57.0958
   1420.14050      74.7936      54.3568    1404.51550      60.7584      57.2688
   1420.12524      77.0347      54.6686    1404.50024      61.0363      57.0717
   1420.10998      77.1942      54.5142    1404.48498      60.6823      57.1253
   1420.09472      76.4539      54.5685    1404.46972      59.9462      57.4073
   1420.07946      75.7056      55.1814    1404.45446      60.3172      56.6635
   1420.06420      75.1874      55.2485    1404.43920      60.5655      57.6817
   1420.04895      73.4494      52.3812    1404.42395      60.4132      58.2097
   1420.03369      70.0238      50.7389    1404.40869      60.7108      58.1612
   1420.01843      69.2268      50.4003    1404.39343      60.2687      58.1420
   1420.00317      69.2614      51.0335    1404.37817      60.4889      58.2575
   1419.98791      70.3552      51.2479    1404.36291      60.6746      58.1518
   1419.97265      71.6973      52.5032    1404.34765      59.6927      58.5239
   1419.95739      74.9852      54.3989    1404.33239      60.2774      58.2326
   1419.94213      78.9463      57.5502    1404.31713      59.9792      58.6519
   1419.92687      83.2384      61.4017    1404.30187      59.9097      58.7730
   1419.91162      84.5994      61.7495    1404.28662      59.4045      58.9428
   1419.89636      83.9291      61.1770    1404.27136      59.6478      58.3844
   1419.88110      83.3248      60.1504    1404.25610      59.8100      59.3583
   1419.86584      80.9745      59.8994    1404.24084      60.3021      59.5649
   1419.85058      81.7663      58.8861    1404.22558      59.5517      59.0634
   1419.83532      79.7743      59.1127    1404.21032      59.6514      59.4444
   1419.82006      79.5617      58.4043    1404.19506      59.3020      59.0330
   1419.80480      78.4676      57.4139    1404.17980      59.8252      59.9175
   1419.78955      76.7295      56.9769    1404.16455      59.2811      60.8394
   1419.77429      76.8754      56.8395    1404.14929      59.4382      60.3587
   1419.75903      75.4789      55.5025    1404.13403      59.1893      60.4108
   1419.74377      74.8565      55.3827    1404.11877      59.8730      60.7657
   1419.72851      73.6041      54.9410    1404.10351      59.3337      60.4497
   1419.71325      72.3320      53.6873    1404.08825      59.2007      60.4559
   1419.69799      71.4907      52.9780    1404.07299      59.0189      60.5091
   1419.68273      69.5656      52.8846    1404.05773      58.2740      60.5748
   1419.66748      71.2409      53.4451    1404.04248      58.6232      61.7824
   1419.65222      70.6154      53.3609    1404.02722      58.3465      61.0665
   1419.63696      71.3502      53.9101    1404.01196      58.4770      61.1453
   1419.62170      71.0141      53.7715    1403.99670      58.9343      60.8541
   1419.60644      70.7598      53.1448    1403.98144      58.6065      61.4472
   1419.59118      69.7002      52.9336    1403.96618      58.9489      61.6952
   1419.57592      67.4023      51.6212    1403.95092      58.7778      62.3210
   1419.56066      66.4780      50.7264    1403.93566      58.6145      62.0537
   1419.54541      64.5217      50.0156    1403.92041      58.5392      62.6436
   1419.53015      65.2870      49.7879    1403.90515      58.8449      62.7837
   1419.51489      65.0679      49.4035    1403.88989      58.8901      62.3791
   1419.49963      64.2088      49.5538    1403.87463      58.4730      62.7428
   1419.48437      64.0612      49.2129    1403.85937      58.7147      63.7466
   1419.46911      64.6600      49.7613    1403.84411      58.2512      63.1032
   1419.45385      64.2630      50.1049    1403.82885      58.1229      63.0759
   1419.43859      64.5748      49.4663    1403.81359      58.6352      64.0302
   1419.42333      64.2904      49.5348    1403.79833      58.2037      63.7115
   1419.40808      63.4305      49.9684    1403.78308      58.1723      63.8795
   1419.39282      63.9613      50.3988    1403.76782      57.8174      63.8051
   1419.37756      63.7767      50.0909    1403.75256      58.1517      63.9040
   1419.36230      63.7799      50.3021    1403.73730      57.9286      64.6361
   1419.34704      64.3223      50.2134    1403.72204      58.3391      63.9793
   1419.33178      64.0277      50.2793    1403.70678      57.7232      64.2471
   1419.31652      63.6568      50.0833    1403.69152      57.8628      64.7793
   1419.30126      63.5131      50.0616    1403.67626      57.7524      64.7727
   1419.28601      63.9765      50.2672    1403.66101      57.6784      64.9208
   1419.27075      63.4708      50.7266    1403.64575      57.9957      64.7904
   1419.25549      63.3683      50.8170    1403.63049      57.8486      64.3735
   1419.24023      63.6427      50.2530    1403.61523      57.6930      65.5475
   1419.22497      63.6697      50.1956    1403.59997      57.9318      65.8528
   1419.20971      64.2955      50.9014    1403.58471      57.7155      65.8848
   1419.19445      63.8016      50.4356    1403.56945      57.7592      65.6676
   1419.17919      63.6695      50.5692    1403.55419      57.7063      65.7167
   1419.16394      63.4860      50.9598    1403.53894      57.7284      66.2617
   1419.14868      63.7734      51.5215    1403.52368      57.4369      66.6587
   1419.13342      64.0786      50.3871    1403.50842      57.3424      67.1964
   1419.11816      63.7156      51.4720    1403.49316      57.4262      66.7837
   1419.10290      63.6949      50.9149    1403.47790      57.6773      66.7686
   1419.08764      63.4305      51.3626    1403.46264      57.5188      67.2978
   1419.07238      63.3236      51.2458    1403.44738      57.1702      67.9340
   1419.05712      63.2299      51.0751    1403.43212      57.4762      67.4552
   1419.04187      63.4474      51.2179    1403.41687      57.7646      67.7721
   1419.02661      63.0662      51.4686    1403.40161      57.1068      68.0359
   1419.01135      63.1279      51.9077    1403.38635      57.1891      67.7868
   1418.99609      62.7168      51.9767    1403.37109      57.2983      67.9114
   1418.98083      63.2325      52.1279    1403.35583      56.8517      68.8463
   1418.96557      62.8476      51.7290    1403.34057      57.0188      69.3448
   1418.95031      63.1905      51.6142    1403.32531      57.0643      69.0033
   1418.93505      62.9290      51.9793    1403.31005      56.7865      68.6304
   1418.91979      63.2247      52.5271    1403.29479      57.1031      68.7566
   1418.90454      62.8102      52.6577    1403.27954      56.6922      69.3110
   1418.88928      63.3983      52.4641    1403.26428      57.1003      69.3391
   1418.87402      63.0789      52.8450    1403.24902      57.3241      69.5094
   1418.85876      62.6851      52.3090    1403.23376      56.9712      69.9185
   1418.84350      62.3936      52.6863    1403.21850      56.7306      69.5430
   1418.82824      62.0379      52.2838    1403.20324      56.8761      69.5344
   1418.81298      62.6915      52.2610    1403.18798      56.3548      70.4072
   1418.79772      63.2266      52.7901    1403.17272      56.8761      70.4793
   1418.78247      62.7301      53.0964    1403.15747      57.3675      69.8844
   1418.76721      62.1366      52.9317    1403.14221      56.9643      70.9669
   1418.75195      62.1696      52.5861    1403.12695      57.3126      71.5320
   1418.73669      61.9933      52.8202    1403.11169      56.7302      71.1029
   1418.72143      62.9096      53.2999    1403.09643      56.2837      71.0337
   1418.70617      62.3545      53.6170    1403.08117      56.5295      71.9251
   1418.69091      62.3057      53.3165    1403.06591      57.3365      72.0169
   1418.67565      61.9561      53.3144    1403.05065      56.8610      72.6149
   1418.66040      62.2353      53.5351    1403.03540      57.0078      72.4745
   1418.64514      62.2340      53.6264    1403.02014      57.1390      72.3971
   1418.62988      62.5253      53.9146    1403.00488      56.3114      72.4394
   1418.61462      61.8948      53.5985    1402.98962      56.9358      72.6057
   1418.59936      62.4611      54.1255    1402.97436      56.4089      72.8782
   1418.58410      62.6338      54.0200    1402.95910      56.9611      72.7877
   1418.56884      62.9102      54.1050    1402.94384      56.6390      74.1910
   1418.55358      62.2020      54.7981    1402.92858      56.6603      73.6751
   1418.53833      62.7151      54.5494    1402.91333      56.5754      73.7634
   1418.52307      61.7316      54.4491    1402.89807      56.3300      73.9906
   1418.50781      61.7284      54.2293    1402.88281      57.5048      73.5804
   1418.49255      62.6088      54.7845    1402.86755      56.6347      74.2595
   1418.47729      61.9105      54.5807    1402.85229      57.4348      74.7726
   1418.46203      62.0839      54.8501    1402.83703      56.7656      74.2491
   1418.44677      62.1476      54.5693    1402.82177      56.9761      75.4855
   1418.43151      61.7400      54.8896    1402.80651      56.8539      75.3548
   1418.41625      62.0829      55.2197    1402.79125      56.5866      75.6565
   1418.40100      62.2687      55.2832    1402.77600      57.0726      75.8554
   1418.38574      61.4792      55.1025    1402.76074      56.2948      75.1327
   1418.37048      61.5641      55.8805    1402.74548      56.8162      75.8301
   1418.35522      61.8652      54.9963    1402.73022      56.8749      76.5420
   1418.33996      61.4829      55.9397    1402.71496      56.9962      75.8753
   1418.32470      62.4627      55.0803    1402.69970      57.1269      76.8481
   1418.30944      62.1576      55.8511    1402.68444      57.3125      77.0435
   1418.29418      61.4666      56.2298    1402.66918      56.7476      76.6512
   1418.27893      62.3501      56.0592    1402.65393      57.0842      77.2843
   1418.26367      61.7587      55.9908    1402.63867      57.7962      77.2994
   1418.24841      61.4764      55.5756    1402.62341      56.7267      76.6881
   1418.23315      62.2950      56.3720    1402.60815      57.0697      78.4385
   1418.21789      61.5740      56.1609    1402.59289      56.7482      77.9743
   1418.20263      61.5042      56.2121    1402.57763      57.2204      77.7940
   1418.18737      61.7200      56.5459    1402.56237      57.4257      77.4783
   1418.17211      61.8383      56.6007    1402.54711      56.3477      78.1691
   1418.15686      61.3416      56.4215    1402.53186      57.2666      78.2631
   1418.14160      61.4867      57.2537    1402.51660      57.4473      78.2230
   1418.12634      62.3204      57.3839    1402.50134      57.0250      79.9338
   1418.11108      62.1455      57.4019    1402.48608      57.1097      79.3915
   1418.09582      62.0954      56.5648    1402.47082      56.9922      79.9020
   1418.08056      61.3746      56.9951    1402.45556      57.2014      79.8975
   1418.06530      61.1109      57.5445    1402.44030      57.4356      79.8150
   1418.05004      61.0801      56.9657    1402.42504      57.4970      80.6410
   1418.03479      61.3373      57.6658    1402.40979      57.1822      79.9891
   1418.01953      61.8007      57.9386    1402.39453      57.4038      80.9393
   1418.00427      61.3518      57.2670    1402.37927      57.6549      80.0196
   1417.98901      61.0576      57.5430    1402.36401      57.7979      81.5491
   1417.97375      61.3243      57.9591    1402.34875      56.8733      81.8130
   1417.95849      61.2265      58.3695    1402.33349      57.5557      81.9663
   1417.94323      61.2602      58.1333    1402.31823      57.4568      81.4182
   1417.92797      62.1490      58.6771    1402.30297      57.4493      82.0118
   1417.91271      61.7704      58.7006    1402.28771      57.5033      81.9382
   1417.89746      62.1394      58.4420    1402.27246      58.0276      81.7004
   1417.88220      61.1834      59.0337    1402.25720      57.0961      83.0266
   1417.86694      61.4219      58.1052    1402.24194      57.5011      81.5598
   1417.85168      61.6893      58.6632    1402.22668      57.4420      83.0725
   1417.83642      61.2194      59.3269    1402.21142      58.1193      82.9496
   1417.82116      61.2967      59.6022    1402.19616      57.8013      83.7030
   1417.80590      60.6866      59.1431    1402.18090      58.3637      83.5799
   1417.79064      61.6551      58.7644    1402.16564      57.7600      84.1460
   1417.77539      61.3488      59.3019    1402.15039      58.5772      83.4377
   1417.76013      60.9926      58.7637    1402.13513      57.9097      83.5516
   1417.74487      60.9231      59.9192    1402.11987      57.2528      84.1612
   1417.72961      61.1787      59.1299    1402.10461      57.4567      84.0250
   1417.71435      61.5542      59.9005    1402.08935      58.2767      85.6485
   1417.69909      61.0808      59.0126    1402.07409      58.0604      85.0429
   1417.68383      60.9218      60.1734    1402.05883      58.4659      85.3972
   1417.66857      61.6393      59.8905    1402.04357      58.0702      85.2682
   1417.65332      60.9557      60.3055    1402.02832      58.3245      84.8031
   1417.63806      60.8699      60.6430    1402.01306      57.7432      85.8587
   1417.62280      61.5342      61.0531    1401.99780      58.0006      85.3287
   1417.60754      60.7387      60.6019    1401.98254      58.7296      85.7118
   1417.59228      60.8875      60.4333    1401.96728      58.4770      86.9228
   1417.57702      60.3007      61.5125    1401.95202      58.0578      86.1824
   1417.56176      60.8581      60.6424    1401.93676      58.4283      86.1394
   1417.54650      61.6180      60.7623    1401.92150      58.4209      86.6008
   1417.53125      60.5274      60.9351    1401.90625      58.9032      86.6487
   1417.51599      60.4195      62.0452    1401.89099      59.0281      87.1569
   1417.50073      61.0586      61.2192    1401.87573      58.7714      86.8278
   1417.48547      61.9291      61.2277    1401.86047      58.3146      88.2031
   1417.47021      61.2538      61.4714    1401.84521      58.4016      87.4817
   1417.45495      61.2636      61.4254    1401.82995      58.3321      88.0549
   1417.43969      60.9079      61.8189    1401.81469      58.8797      87.9692
   1417.42443      61.3054      61.7338    1401.79943      58.9787      88.1023
   1417.40917      60.6398      61.3763    1401.78417      58.8062      88.7741
   1417.39392      60.9626      61.9550    1401.76892      59.0468      88.1730
   1417.37866      60.8325      62.2945    1401.75366      59.8103      88.0775
   1417.36340      60.6902      62.7497    1401.73840      59.1683      89.4299
   1417.34814      60.9898      62.6005    1401.72314      59.4786      88.0241
   1417.33288      60.2960      62.3347    1401.70788      58.8264      88.8554
   1417.31762      60.4931      62.5548    1401.69262      58.9372      88.6383
   1417.30236      60.8829      63.0973    1401.67736      59.2459      88.6828
   1417.28710      60.8057      63.0056    1401.66210      59.0858      89.6468
   1417.27185      60.8373      63.0197    1401.64685      59.3242      90.3634
   1417.25659      61.1652      63.1713    1401.63159      59.4469      89.5145
   1417.24133      60.7091      63.1035    1401.61633      59.8382      90.3625
   1417.22607      61.1612      63.7423    1401.60107      58.7720      89.5641
   1417.21081      60.4929      62.7538    1401.58581      59.0744      90.4201
   1417.19555      60.5827      62.8128    1401.57055      60.4496      90.7458
   1417.18029      60.6955      63.3080    1401.55529      59.8149      90.0351
   1417.16503      60.0538      63.2103    1401.54003      59.3877      90.2149
   1417.14978      61.1555      63.1054    1401.52478      58.8376      90.4876
   1417.13452      60.3403      63.6339    1401.50952      59.5215      89.9415
   1417.11926      60.7953      63.6664    1401.49426      60.0374      90.3339
   1417.10400      59.9339      64.1707    1401.47900      59.0661      90.1665
   1417.08874      60.0209      63.7471    1401.46374      60.3462      91.7528
   1417.07348      59.8737      63.8174    1401.44848      59.4285      91.4039
   1417.05822      60.0148      64.2019    1401.43322      59.0867      91.2699
   1417.04296      60.6622      64.1500    1401.41796      59.0301      91.1547
   1417.02771      60.5124      64.1484    1401.40271      59.6091      91.9570
   1417.01245      60.2026      64.5229    1401.38745      59.7393      91.2961
   1416.99719      60.0714      64.2598    1401.37219      59.0137      91.2467
   1416.98193      60.4944      64.5897    1401.35693      59.3918      92.3384
   1416.96667      60.7247      64.8898    1401.34167      59.4976      91.3301
   1416.95141      60.4879      65.4041    1401.32641      58.6915      90.3358
   1416.93615      60.2333      64.5876    1401.31115      59.2734      90.8372
   1416.92089      60.1167      65.2888    1401.29589      59.3029      91.8278
   1416.90563      59.9379      65.4885    1401.28063      59.2284      92.3211
   1416.89038      59.5898      65.3072    1401.26538      59.5294      92.9580
   1416.87512      60.1333      65.4224    1401.25012      59.4276      92.8740
   1416.85986      59.7190      64.8347    1401.23486      59.0348      91.5039
   1416.84460      59.8483      64.7265    1401.21960      59.1581      92.2168
   1416.82934      60.0728      65.3644    1401.20434      58.9816      92.0231
   1416.81408      59.6711      64.9462    1401.18908      58.5997      92.7444
   1416.79882      59.7644      65.5679    1401.17382      58.5811      91.4979
   1416.78356      59.9769      64.9417    1401.15856      59.1372      92.1016
   1416.76831      59.9539      65.5193    1401.14331      59.5937      91.7887
   1416.75305      60.0218      65.5028    1401.12805      59.3613      92.2397
   1416.73779      59.0270      65.7414    1401.11279      59.1576      92.4975
   1416.72253      59.0446      65.2403    1401.09753      58.9420      92.4935
   1416.70727      59.4923      65.6875    1401.08227      58.8245      92.0379
   1416.69201      59.3022      65.3749    1401.06701      58.9204      93.3905
   1416.67675      59.3572      65.1906    1401.05175      58.9714      91.9588
   1416.66149      58.9655      65.3815    1401.03649      58.3234      92.4778
   1416.64624      59.1719      65.5696    1401.02124      58.3923      91.7412
   1416.63098      58.9562      65.3439    1401.00598      58.7116      92.4126
   1416.61572      58.9135      65.8196    1400.99072      58.5700      92.1941
   1416.60046      59.3966      65.8861    1400.97546      58.2512      91.0502
   1416.58520      58.4100      65.9609    1400.96020      58.0155      91.7814
   1416.56994      58.5156      65.0533    1400.94494      58.5109      91.5324
   1416.55468      59.0813      65.6030    1400.92968      57.9733      92.1451
   1416.53942      58.7220      65.0735    1400.91442      58.3642      91.4855
   1416.52417      58.8145      66.2859    1400.89917      57.8417      91.5497
   1416.50891      58.5360      65.6097    1400.88391      57.9733      91.0846
   1416.49365      58.6853      65.7142    1400.86865      58.0487      91.8873
   1416.47839      58.4421      65.6422    1400.85339      57.2837      92.2228
   1416.46313      58.4908      65.3846    1400.83813      57.8740      91.1264
   1416.44787      58.7170      65.4854    1400.82287      57.8656      91.0282
   1416.43261      58.7220      65.4358    1400.80761      57.1203      92.3773
   1416.41735      57.8120      66.1137    1400.79235      58.2765      90.7716
   1416.40209      57.6217      66.0881    1400.77709      57.5622      91.2385
   1416.38684      57.8686      65.4483    1400.76184      57.4893      91.3805
   1416.37158      58.1213      65.5854    1400.74658      56.8454      91.6613
   1416.35632      58.1365      65.9428    1400.73132      56.8606      90.9967
   1416.34106      57.9740      65.3865    1400.71606      56.9399      90.6010
   1416.32580      58.2801      65.1566    1400.70080      57.0846      90.4278
   1416.31054      57.1833      65.2135    1400.68554      56.7603      90.7697
   1416.29528      57.4155      65.3430    1400.67028      56.3025      90.4977
   1416.28002      57.4543      65.7124    1400.65502      56.2806      90.3063
   1416.26477      57.2032      65.7376    1400.63977      56.6395      90.7334
   1416.24951      56.9058      65.5507    1400.62451      55.7684      89.3637
   1416.23425      57.1036      65.5980    1400.60925      55.7028      89.8145
   1416.21899      56.8456      65.0410    1400.59399      55.8561      89.9275
   1416.20373      56.1793      65.1516    1400.57873      55.8442      89.8260
   1416.18847      56.4362      64.9255    1400.56347      56.3170      89.9579
   1416.17321      56.5770      64.8361    1400.54821      55.1423      89.1296
   1416.15795      56.6958      64.6665    1400.53295      55.2093      89.5488
   1416.14270      56.3629      63.9204    1400.51770      55.1196      89.1106
   1416.12744      56.4437      64.2142    1400.50244      54.9711      88.9076
   1416.11218      55.7715      64.8152    1400.48718      55.1739      88.2030
   1416.09692      55.8011      64.9298    1400.47192      55.1525      87.4023
   1416.08166      55.7308      63.9928    1400.45666      54.5490      89.3610
   1416.06640      55.3804      64.7857    1400.44140      54.1362      87.2878
   1416.05114      55.2891      63.6055    1400.42614      54.1139      88.5222
   1416.03588      55.1370      64.0178    1400.41088      53.5261      87.2901
   1416.02062      54.4281      63.1957    1400.39562      53.4650      87.3000
   1416.00537      54.6718      63.8182    1400.38037      53.3638      88.1767
   1415.99011      55.0540      63.5254    1400.36511      53.9875      86.4425
   1415.97485      55.0550      62.9420    1400.34985      53.4056      86.4242
   1415.95959      54.3986      62.7628    1400.33459      53.3170      86.9305
   1415.94433      54.0396      62.6887    1400.31933      52.8374      85.8952
   1415.92907      54.1670      63.8859    1400.30407      52.9161      86.1763
   1415.91381      54.0145      62.6649    1400.28881      52.7075      85.8127
   1415.89855      53.9394      62.4411    1400.27355      52.1508      85.6617
   1415.88330      53.1803      62.9607    1400.25830      52.0177      84.6951
   1415.86804      53.0245      62.2649    1400.24304      52.0562      84.9242
   1415.85278      53.6725      62.8657    1400.22778      51.8407      83.9013
   1415.83752      53.0752      62.0482    1400.21252      51.2271      84.1783
   1415.82226      52.9922      61.3931    1400.19726      51.1226      83.8439
   1415.80700      53.1529      62.2034    1400.18200      51.0002      82.6853
   1415.79174      52.8234      62.1979    1400.16674      50.6426      83.4490
   1415.77648      52.5758      61.0828    1400.15148      50.4757      83.0022
   1415.76123      52.3997      61.6708    1400.13623      50.6595      82.8163
   1415.74597      52.1405      61.0879    1400.12097      50.1748      82.9626
   1415.73071      52.0587      60.3900    1400.10571      49.8512      81.3736
   1415.71545      52.0833      60.9862    1400.09045      49.8624      81.8153
   1415.70019      51.6535      60.3509    1400.07519      49.6562      81.4296
   1415.68493      51.5642      60.4551    1400.05993      48.7951      81.5817
   1415.66967      51.3066      60.0638    1400.04467      48.7849      80.5685
   1415.65441      50.9910      59.8091    1400.02941      48.7137      80.1838
   1415.63916      51.1768      59.6304    1400.01416      48.8767      80.1882
   1415.62390      50.5208      59.4743    1399.99890      48.6981      79.9478
   1415.60864      50.4493      59.6811    1399.98364      48.0553      79.3129
   1415.59338      50.2951      59.0570    1399.96838      48.4627      79.0369
   1415.57812      50.4114      58.8241    1399.95312      47.5611      78.6136
   1415.56286      49.9438      58.7431    1399.93786      47.5672      78.1897
   1415.54760      49.2603      58.5880    1399.92260      46.5046      78.3949
   1415.53234      49.3174      58.2304    1399.90734      47.3529      77.6674
   1415.51708      48.6008      57.7621    1399.89208      46.4343      76.4782
   1415.50183      49.2742      57.4039    1399.87683      46.4255      76.0339
   1415.48657      48.5209      57.7288    1399.86157      46.1072      76.5716
   1415.47131      48.2756      56.7504    1399.84631      45.8529      75.5103
   1415.45605      48.2733      57.4659    1399.83105      45.6395      75.4573
   1415.44079      47.8526      56.6994    1399.81579      45.3192      74.6326
   1415.42553      48.4289      55.9317    1399.80053      45.0267      74.5085
   1415.41027      47.5067      56.4746    1399.78527      44.4058      73.7506
   1415.39501      47.3266      55.5928    1399.77001      45.1330      73.5927
   1415.37976      47.2685      55.5007    1399.75476      44.2804      73.6017
   1415.36450      47.2374      55.1130    1399.73950      44.3343      72.9977
   1415.34924      46.8031      55.3825    1399.72424      44.2053      72.1634
   1415.33398      46.2114      54.5942    1399.70898      43.7653      72.3515
   1415.31872      45.8793      54.8678    1399.69372      43.2705      71.5722
   1415.30346      46.0740      54.5766    1399.67846      43.4388      71.9620
   1415.28820      45.6540      54.7316    1399.66320      43.2370      70.9112
   1415.27294      45.7704      53.7474    1399.64794      42.3485      70.7591
   1415.25769      45.3863      53.7936    1399.63269      42.3759      70.0898
   1415.24243      45.1859      53.1817    1399.61743      41.6950      69.3539
   1415.22717      44.8606      53.0557    1399.60217      41.3980      68.8004
   1415.21191      44.8394      52.9948    1399.58691      41.5492      68.6119
   1415.19665      44.2897      52.4168    1399.57165      41.3773      68.5110
   1415.18139      44.1549      52.1383    1399.55639      41.2025      67.7577
   1415.16613      43.8785      51.7522    1399.54113      40.8316      67.2586
   1415.15087      43.6602      51.4542    1399.52587      40.5836      67.9902
   1415.13562      43.3485      50.9571    1399.51062      40.3019      66.7662
   1415.12036      43.1181      51.1052    1399.49536      39.9046      67.0325
   1415.10510      42.9467      51.1475    1399.48010      39.5060      65.8468
   1415.08984      42.9661      50.9479    1399.46484      39.5233      64.8463
   1415.07458      42.3342      50.3865    1399.44958      39.2742      64.7399
   1415.05932      42.2855      49.7606    1399.43432      38.9579      64.5358
   1415.04406      42.3747      49.4481    1399.41906      38.9601      64.5607
   1415.02880      41.6359      49.7703    1399.40380      38.3340      64.9717
   1415.01354      41.6003      48.8162    1399.38854      38.3441      63.4536
   1414.99829      41.0642      48.8211    1399.37329      37.9721      63.6549
   1414.98303      41.0437      49.1154    1399.35803      38.0257      62.6608
   1414.96777      40.9886      48.1316    1399.34277      37.6073      62.2826
   1414.95251      40.4029      48.0781    1399.32751      37.6695      61.5844
   1414.93725      40.4103      47.7731    1399.31225      37.4156      61.6371
   1414.92199      40.1157      47.7617    1399.29699      36.8089      61.5259
   1414.90673      39.9413      46.8279    1399.28173      36.9649      61.0540
   1414.89147      39.4580      47.0099    1399.26647      36.4301      60.2070
   1414.87622      39.9568      46.5929    1399.25122      35.9607      60.1159
