#     FILENAME=Skynet_59007_gl48_45084_54668.A.spect.cal.txt
#     BASENAME=Skynet_59007_gl48_45084_54668
#      CONTROL=SKYNET
#     PROJCODE=Skynet_59007_gl48_45084
#     DATAROOT=/raid/scratch/cyborg/SkynetData
#      DATADIR=/raid/scratch/cyborg
#     DATADIR2=/raid/scratch/cyborg/SkynetData/Skynet_59007_gl48_45084/Cyborg
#     SCANNAME=2018_05_24_20
#     SRC_NAME=gl48
#     OBSERVER=reichart_2118
#     DATE_OBS=2020-06-07T04:31:02.500
#        OBSID=45084
#      SCANNUM=54668
#          MJD=59007.1882234
#          UTC=16262
#     SCANTYPE=track
#     DATAMODE=HIRES
#     RECEIVER=Rx1_2
#      OBSFREQ=1395.0000
# Actual_FREQ1=1421.8800,
# Actual_FREQ2=1406.2550
#    LO1Tuning=6856.2600
#     RFFILTER=1355_1435
#        OBSBW=-15.6250
#     EFFBANDW=15.6250
#        NCHAN=1024
#    STARTCHAN=51
#     STOPCHAN=972
#         TINT=0.3000
#         TBIN=0.00013107
#       ACCLEN=2048 
#     DURATION=18.30
#     EXPOSURE=2.10
#        FOCUS=37.071
#       RA,DEC=19:19:41.13, 13:22:36.10
#      RA(deg)=289.84650
#     DEC(deg)=13.37852
#   WIDTH(deg)=0.0073x0.0058
#    AZIM(deg)=108.2207
#    ELEV(deg)=42.1297
#     COORDREF=LNG_LAT
#         HREF=48.0000
#         VREF=0.0000
#      RADESYS=FK5
#       OFFSYS=RADEC
#      EQUINOX=2000.00
#     IFATTENS=21.00, 5.00
#   BALANCELEV=1.200 
#   POWER_XLYR=[1.11, 1.11] 
#       VELDEF=RADI-OBS 
#     VELOCITY=0.000 
#         NPOL=2 
#      POLMODE=Linear 
#      POLTYPE=XXYY 
#      WARNING=None 
#     NOISECAL=HI 
#       PRECAL=2 
#      POSTCAL=2 
#     CRYOTEMP=15 
#      BOXTEMP=33 
#         TSYS=XX1:45.04, YY1:43.82
#         TSYS=XX2:40.69, YY2:48.19
#         TCAL=XX1:9.17, YY1:10.07
#         TCAL=XX2:9.16, YY2:9.99
# Calibrated spectra 
#                
#                
#Freq1(MHz)         XX1          YY1   Freq2(MHz)       XX2         YY2 
   1428.91430      22.4029      27.7425    1413.28930      22.9339      35.9020
   1428.89904      22.4815      27.8809    1413.27404      23.0004      35.9775
   1428.88378      22.5429      28.1685    1413.25878      23.4658      35.8896
   1428.86853      22.5648      28.1991    1413.24353      23.2457      36.0305
   1428.85327      22.6641      28.5065    1413.22827      23.3688      36.3775
   1428.83801      22.6421      28.5445    1413.21301      23.5517      36.8759
   1428.82275      22.8428      28.7632    1413.19775      23.6752      36.8976
   1428.80749      22.8700      28.9132    1413.18249      23.8319      36.7917
   1428.79223      23.0743      28.9277    1413.16723      23.6833      37.3018
   1428.77697      23.2352      29.2273    1413.15197      23.8047      37.3336
   1428.76171      23.1275      29.4731    1413.13671      24.2631      37.2727
   1428.74646      23.3488      29.6285    1413.12146      24.2949      37.6222
   1428.73120      23.2978      29.8841    1413.10620      24.4030      37.8882
   1428.71594      23.4625      30.2939    1413.09094      24.6603      38.0927
   1428.70068      23.5733      30.2511    1413.07568      24.5662      37.9423
   1428.68542      23.5523      30.6317    1413.06042      24.7246      38.4224
   1428.67016      24.0548      30.8061    1413.04516      24.5831      38.6384
   1428.65490      24.1851      30.9059    1413.02990      25.2552      38.9793
   1428.63964      24.1697      31.1481    1413.01464      25.0278      39.0127
   1428.62438      24.2064      30.9058    1412.99938      25.2295      39.5141
   1428.60913      24.2420      31.3925    1412.98413      25.1948      39.1443
   1428.59387      24.3768      31.3786    1412.96887      25.3197      39.6368
   1428.57861      24.1105      31.7421    1412.95361      25.6737      39.7365
   1428.56335      24.6670      32.0131    1412.93835      25.8931      40.0371
   1428.54809      24.6656      32.3636    1412.92309      25.8329      40.4279
   1428.53283      24.7067      32.1904    1412.90783      25.9255      40.0047
   1428.51757      25.0364      32.5379    1412.89257      26.0699      40.5813
   1428.50231      25.2772      32.9041    1412.87731      26.3026      40.6825
   1428.48706      25.1129      33.0936    1412.86206      26.5523      41.0716
   1428.47180      25.3800      33.3093    1412.84680      26.2516      41.4406
   1428.45654      25.3839      33.7377    1412.83154      26.6434      41.5225
   1428.44128      25.3675      33.8164    1412.81628      26.8534      41.6312
   1428.42602      25.5960      33.7719    1412.80102      26.6890      41.8210
   1428.41076      25.8473      34.1797    1412.78576      27.3446      42.0411
   1428.39550      26.0062      33.9797    1412.77050      27.0562      42.2741
   1428.38024      26.0410      34.7180    1412.75524      27.2873      42.6124
   1428.36499      26.3919      35.1912    1412.73999      27.0913      42.5570
   1428.34973      26.2653      34.8095    1412.72473      27.7119      42.7589
   1428.33447      26.6381      35.1984    1412.70947      27.4395      43.0939
   1428.31921      26.4171      35.5787    1412.69421      27.8592      43.4357
   1428.30395      26.7657      35.6614    1412.67895      27.9364      43.7430
   1428.28869      26.7565      36.2280    1412.66369      28.0873      43.3792
   1428.27343      26.7770      36.4596    1412.64843      28.1875      43.9356
   1428.25817      27.1316      36.2652    1412.63317      28.4458      44.2746
   1428.24292      27.2260      36.6656    1412.61792      28.5802      44.4896
   1428.22766      27.4689      36.8503    1412.60266      28.6469      44.4022
   1428.21240      27.2649      37.1089    1412.58740      28.6409      44.4776
   1428.19714      27.4321      37.5458    1412.57214      28.8913      44.8188
   1428.18188      27.5153      37.3122    1412.55688      28.9981      44.6662
   1428.16662      27.7215      37.6489    1412.54162      29.1333      45.2248
   1428.15136      27.8230      38.2558    1412.52636      29.0230      46.0020
   1428.13610      28.0049      38.1126    1412.51110      29.2989      46.0092
   1428.12084      27.7594      38.4979    1412.49584      29.5320      45.4107
   1428.10559      28.2850      38.6124    1412.48059      29.5111      46.4716
   1428.09033      28.2103      39.2002    1412.46533      30.0701      46.1800
   1428.07507      28.7887      39.4155    1412.45007      29.9578      46.5152
   1428.05981      28.5799      39.6827    1412.43481      29.9666      46.4470
   1428.04455      28.7998      39.4884    1412.41955      30.2931      46.7035
   1428.02929      28.7499      39.6791    1412.40429      30.2596      46.9736
   1428.01403      28.9734      40.2661    1412.38903      30.1098      47.0006
   1427.99877      29.0812      40.4438    1412.37377      30.3729      47.0534
   1427.98352      29.3202      40.3858    1412.35852      30.6142      47.8137
   1427.96826      29.6016      41.2062    1412.34326      30.5049      47.7337
   1427.95300      29.3516      41.4504    1412.32800      31.2000      47.6501
   1427.93774      29.6610      41.3683    1412.31274      30.7769      48.3490
   1427.92248      29.8986      41.3927    1412.29748      31.0360      48.0956
   1427.90722      29.7697      41.9597    1412.28222      31.1063      48.4032
   1427.89196      29.9503      41.6482    1412.26696      31.4144      48.7542
   1427.87670      30.0666      42.0533    1412.25170      31.4976      48.5355
   1427.86145      29.9719      42.3793    1412.23645      31.5109      48.8915
   1427.84619      30.2371      42.4754    1412.22119      31.4890      48.6717
   1427.83093      30.7750      42.9441    1412.20593      31.5476      49.1922
   1427.81567      31.0160      42.9695    1412.19067      31.9808      49.9494
   1427.80041      30.7877      43.3263    1412.17541      32.0174      49.0181
   1427.78515      30.8998      43.3889    1412.16015      32.1185      49.9245
   1427.76989      30.8029      44.0387    1412.14489      32.0750      49.8254
   1427.75463      31.0154      44.2166    1412.12963      32.1244      50.3400
   1427.73937      31.0414      44.3994    1412.11437      32.3251      50.5882
   1427.72412      31.0977      44.2765    1412.09912      32.4419      50.2039
   1427.70886      31.1461      44.7447    1412.08386      32.5390      50.8778
   1427.69360      31.5382      44.5761    1412.06860      32.6867      50.5873
   1427.67834      31.6269      44.9198    1412.05334      33.1229      50.6325
   1427.66308      31.6234      45.5886    1412.03808      32.8798      50.7191
   1427.64782      31.8589      45.0516    1412.02282      32.9858      50.9347
   1427.63256      32.1470      46.1245    1412.00756      33.2009      51.0581
   1427.61730      32.2038      46.0091    1411.99230      32.9737      51.1590
   1427.60205      31.9469      45.8313    1411.97705      33.2162      51.1261
   1427.58679      32.3359      46.3443    1411.96179      33.0464      51.3177
   1427.57153      32.5142      46.7614    1411.94653      33.2374      51.3262
   1427.55627      32.5883      46.1334    1411.93127      33.4767      51.8930
   1427.54101      32.4852      46.4322    1411.91601      33.5040      51.9427
   1427.52575      32.1863      46.9979    1411.90075      33.7281      51.3553
   1427.51049      32.7239      47.2965    1411.88549      33.8868      52.2413
   1427.49523      32.8797      47.5386    1411.87023      33.5045      52.3983
   1427.47998      32.9925      47.5360    1411.85498      33.9007      52.3854
   1427.46472      33.0531      48.3342    1411.83972      33.9575      52.5106
   1427.44946      33.2771      47.4768    1411.82446      33.9917      52.5318
   1427.43420      33.2879      48.1991    1411.80920      34.1740      52.5497
   1427.41894      33.3545      47.8353    1411.79394      34.1426      52.6191
   1427.40368      33.1442      47.8525    1411.77868      34.0595      53.4539
   1427.38842      33.3545      48.7058    1411.76342      34.4066      52.8849
   1427.37316      33.7151      48.4706    1411.74816      34.1651      52.7178
   1427.35791      33.7274      48.3265    1411.73291      34.1790      52.7731
   1427.34265      33.6428      48.9827    1411.71765      34.7447      52.8959
   1427.32739      33.8736      49.1060    1411.70239      34.7282      52.7431
   1427.31213      33.9952      49.0045    1411.68713      34.8326      53.3731
   1427.29687      33.8913      49.3278    1411.67187      34.4436      53.0988
   1427.28161      33.8628      49.3730    1411.65661      34.4371      53.1644
   1427.26635      33.9204      49.7478    1411.64135      34.6175      53.2107
   1427.25109      34.2142      49.4286    1411.62609      34.8985      53.9845
   1427.23583      34.4871      49.7138    1411.61083      35.1039      53.3796
   1427.22058      34.5081      50.0167    1411.59558      35.2101      53.6747
   1427.20532      34.2917      50.0575    1411.58032      35.0647      53.4815
   1427.19006      34.5185      50.0377    1411.56506      34.9910      53.7339
   1427.17480      34.6517      50.2292    1411.54980      35.3562      53.5582
   1427.15954      34.6680      50.2818    1411.53454      35.3303      53.8222
   1427.14428      34.5926      50.3425    1411.51928      35.1872      54.1493
   1427.12902      34.8851      50.7113    1411.50402      35.5735      53.9605
   1427.11376      35.0637      50.6643    1411.48876      35.2383      53.1516
   1427.09851      35.1043      50.2795    1411.47351      35.4916      53.8399
   1427.08325      34.6880      50.4609    1411.45825      35.6239      53.0648
   1427.06799      34.9725      51.2197    1411.44299      35.5120      54.1090
   1427.05273      35.0197      51.4756    1411.42773      35.6181      54.0734
   1427.03747      35.2385      51.1891    1411.41247      35.5943      53.7959
   1427.02221      35.1400      51.2854    1411.39721      35.5827      53.7102
   1427.00695      35.1129      51.5703    1411.38195      35.5163      54.2017
   1426.99169      35.0873      51.2183    1411.36669      35.9932      53.9416
   1426.97644      35.5338      51.3771    1411.35144      35.5572      54.2237
   1426.96118      35.3654      51.9583    1411.33618      35.6060      54.6917
   1426.94592      35.2829      51.7611    1411.32092      35.9467      53.7595
   1426.93066      35.4098      51.4105    1411.30566      35.7469      54.2844
   1426.91540      35.6848      52.1059    1411.29040      36.1931      53.8749
   1426.90014      35.7376      51.8565    1411.27514      35.6647      54.2395
   1426.88488      35.7847      51.6481    1411.25988      35.9291      53.5360
   1426.86962      35.4386      51.4605    1411.24462      36.0937      53.9459
   1426.85437      35.7866      51.6569    1411.22937      35.4240      54.3520
   1426.83911      35.6542      52.0244    1411.21411      36.2399      53.8076
   1426.82385      36.0254      51.6934    1411.19885      36.0647      53.8265
   1426.80859      36.1263      51.7759    1411.18359      36.2008      54.3208
   1426.79333      36.0254      52.2842    1411.16833      36.1634      54.2808
   1426.77807      36.3877      51.7767    1411.15307      36.3280      53.8621
   1426.76281      36.0699      52.3874    1411.13781      36.3513      54.0431
   1426.74755      35.8905      52.6336    1411.12255      36.7358      53.9265
   1426.73229      36.2707      52.5077    1411.10729      35.9011      54.1741
   1426.71704      36.5917      52.0607    1411.09204      36.2603      54.4068
   1426.70178      36.3649      52.8609    1411.07678      36.5266      54.2847
   1426.68652      36.3060      52.8417    1411.06152      36.6647      53.6808
   1426.67126      36.0773      52.4548    1411.04626      36.2487      53.6742
   1426.65600      36.5490      52.5231    1411.03100      36.6715      53.8587
   1426.64074      36.3653      52.1197    1411.01574      36.6911      53.6807
   1426.62548      36.1348      51.8280    1411.00048      36.5402      53.9311
   1426.61022      36.1030      52.4967    1410.98522      36.3701      53.4810
   1426.59497      36.5896      52.8751    1410.96997      36.2164      53.6844
   1426.57971      36.8943      52.4038    1410.95471      36.4915      53.6843
   1426.56445      36.4856      52.8336    1410.93945      36.4244      53.3369
   1426.54919      36.4213      52.1346    1410.92419      36.6842      53.1346
   1426.53393      36.4821      52.8203    1410.90893      36.4820      53.9595
   1426.51867      36.7641      52.6618    1410.89367      36.6028      53.8717
   1426.50341      36.7012      52.7371    1410.87841      36.7201      53.3950
   1426.48815      36.0922      52.9051    1410.86315      36.5699      53.5101
   1426.47290      36.8228      52.6114    1410.84790      36.8537      53.1993
   1426.45764      36.8694      52.3126    1410.83264      37.1309      52.6259
   1426.44238      37.0624      52.2766    1410.81738      36.4860      52.8802
   1426.42712      36.5983      51.6989    1410.80212      36.5827      52.9919
   1426.41186      37.1114      51.8250    1410.78686      36.6857      53.0970
   1426.39660      36.8767      52.3084    1410.77160      36.6794      53.0739
   1426.38134      37.0224      52.1769    1410.75634      37.0443      53.2187
   1426.36608      36.8959      52.8180    1410.74108      37.1623      52.5881
   1426.35083      36.8413      52.6543    1410.72583      36.7434      52.2951
   1426.33557      37.3402      52.4023    1410.71057      36.6824      52.4955
   1426.32031      37.2662      52.4858    1410.69531      36.7344      52.8845
   1426.30505      37.3404      52.4948    1410.68005      37.0084      52.3326
   1426.28979      37.3927      52.5930    1410.66479      37.1504      52.4784
   1426.27453      37.3781      51.7597    1410.64953      37.0602      52.6637
   1426.25927      37.2200      52.5968    1410.63427      37.0236      52.1815
   1426.24401      37.1830      52.2992    1410.61901      36.9696      51.9392
   1426.22875      37.4498      52.3311    1410.60375      36.7493      52.4806
   1426.21350      37.6267      51.7816    1410.58850      37.0062      51.9305
   1426.19824      37.2329      51.6674    1410.57324      37.0690      52.3593
   1426.18298      37.7048      52.0115    1410.55798      37.0561      51.6229
   1426.16772      37.1910      52.3880    1410.54272      37.1787      51.8814
   1426.15246      37.9322      52.2639    1410.52746      37.3295      51.4974
   1426.13720      37.4125      51.9917    1410.51220      37.5275      51.5772
   1426.12194      37.8203      52.0160    1410.49694      37.3515      51.4459
   1426.10668      37.8625      52.2862    1410.48168      37.1544      51.1701
   1426.09143      37.9033      51.8213    1410.46643      36.9948      51.3499
   1426.07617      37.5336      51.5841    1410.45117      37.1222      51.3690
   1426.06091      38.0002      51.7961    1410.43591      36.8266      51.9260
   1426.04565      38.1470      51.8989    1410.42065      37.1179      51.0491
   1426.03039      38.2721      51.5330    1410.40539      37.0425      50.5958
   1426.01513      37.6978      52.0385    1410.39013      37.4900      51.0337
   1425.99987      37.4763      51.3094    1410.37487      36.9689      50.6856
   1425.98461      38.1252      51.0409    1410.35961      37.2889      50.5261
   1425.96936      37.8900      51.8359    1410.34436      37.3307      49.9975
   1425.95410      38.0279      51.5410    1410.32910      38.0206      50.4605
   1425.93884      37.3289      51.4331    1410.31384      37.2672      50.7239
   1425.92358      37.9828      50.9290    1410.29858      37.4247      50.1188
   1425.90832      38.3079      51.3158    1410.28332      37.4503      50.8403
   1425.89306      38.2846      50.9320    1410.26806      37.4609      50.4133
   1425.87780      38.2700      51.0041    1410.25280      37.0396      50.1121
   1425.86254      38.0381      51.1012    1410.23754      37.6664      49.9925
   1425.84729      38.2774      50.9319    1410.22229      37.3989      50.1387
   1425.83203      38.4108      50.5575    1410.20703      37.0152      49.5833
   1425.81677      38.1717      50.4559    1410.19177      37.1279      49.7291
   1425.80151      38.5684      50.2512    1410.17651      37.3822      50.0018
   1425.78625      38.3358      50.4592    1410.16125      37.7242      49.1337
   1425.77099      38.2775      50.4361    1410.14599      37.4619      49.0477
   1425.75573      38.4188      50.2141    1410.13073      37.5147      49.0399
   1425.74047      38.9253      50.6323    1410.11547      37.4995      49.5643
   1425.72521      38.5950      50.4384    1410.10021      37.8106      48.5402
   1425.70996      38.6983      50.7374    1410.08496      37.7786      49.0938
   1425.69470      38.6435      50.2277    1410.06970      37.2818      48.8574
   1425.67944      38.4801      50.2555    1410.05444      37.9915      48.8957
   1425.66418      38.7574      50.2962    1410.03918      37.4211      49.1261
   1425.64892      38.3431      50.0418    1410.02392      37.4591      48.5822
   1425.63366      38.7906      49.8698    1410.00866      37.7406      48.2606
   1425.61840      38.9037      49.9954    1409.99340      37.4442      48.8077
   1425.60314      38.7334      49.9994    1409.97814      37.5516      48.7314
   1425.58789      38.5097      49.8688    1409.96289      37.4052      48.4001
   1425.57263      38.7283      49.7967    1409.94763      38.0979      47.9974
   1425.55737      38.7462      49.5107    1409.93237      38.0742      48.0070
   1425.54211      38.9919      49.9902    1409.91711      37.4575      48.0285
   1425.52685      39.0339      49.8273    1409.90185      38.2511      48.0458
   1425.51159      38.5700      49.5475    1409.88659      37.8428      47.6532
   1425.49633      39.3274      49.1239    1409.87133      37.9465      47.8478
   1425.48107      38.9238      49.5559    1409.85607      38.1149      47.5437
   1425.46582      39.0770      48.9342    1409.84082      38.0713      47.1409
   1425.45056      39.1414      49.0610    1409.82556      37.5940      47.0183
   1425.43530      39.3645      49.5841    1409.81030      37.7462      47.2274
   1425.42004      39.3729      49.1162    1409.79504      37.8022      47.0332
   1425.40478      39.3710      48.8400    1409.77978      38.2050      46.8782
   1425.38952      39.3910      48.7583    1409.76452      37.8484      46.9640
   1425.37426      39.2959      48.4518    1409.74926      37.9773      47.1417
   1425.35900      39.6769      48.5788    1409.73400      37.8042      46.5725
   1425.34375      39.2464      49.1437    1409.71875      37.8703      46.6537
   1425.32849      39.2255      48.6106    1409.70349      38.0177      47.0015
   1425.31323      39.4503      48.7854    1409.68823      38.2665      46.3534
   1425.29797      39.9656      48.2397    1409.67297      37.8997      46.4681
   1425.28271      39.7906      49.0161    1409.65771      38.3269      46.3001
   1425.26745      39.6227      48.4892    1409.64245      38.4207      46.0559
   1425.25219      39.7019      48.3994    1409.62719      37.7720      45.8809
   1425.23693      40.4509      48.3513    1409.61193      38.2242      45.9585
   1425.22167      39.6299      47.9327    1409.59667      38.1655      45.9082
   1425.20642      39.6310      48.0649    1409.58142      37.7774      45.8623
   1425.19116      40.1838      47.8420    1409.56616      38.1544      45.4337
   1425.17590      40.0519      48.3680    1409.55090      38.7218      45.8362
   1425.16064      39.9187      47.6293    1409.53564      38.1485      45.1085
   1425.14538      39.9027      47.7462    1409.52038      38.4022      44.8546
   1425.13012      40.3076      47.6200    1409.50512      38.6137      45.1602
   1425.11486      39.8790      47.7031    1409.48986      38.5004      45.3406
   1425.09960      40.2962      47.0453    1409.47460      38.4097      44.7855
   1425.08435      40.0209      47.2538    1409.45935      38.2601      44.8659
   1425.06909      40.1006      47.4699    1409.44409      38.3446      45.2801
   1425.05383      40.0977      47.0039    1409.42883      38.4140      44.6074
   1425.03857      40.5370      47.2856    1409.41357      38.2343      44.9129
   1425.02331      40.4136      47.3154    1409.39831      38.5544      44.0968
   1425.00805      40.9560      47.3131    1409.38305      38.3951      44.5425
   1424.99279      40.0724      46.9652    1409.36779      38.6665      44.1686
   1424.97753      40.5903      46.9460    1409.35253      38.5811      44.2610
   1424.96228      40.7882      46.8727    1409.33728      38.6873      44.2251
   1424.94702      40.7005      46.9163    1409.32202      38.7748      44.3714
   1424.93176      40.5867      46.4235    1409.30676      38.7920      44.2734
   1424.91650      41.0061      46.7669    1409.29150      38.6000      44.0775
   1424.90124      40.8479      46.9618    1409.27624      38.8226      43.5913
   1424.88598      40.6173      46.6842    1409.26098      38.8201      43.6880
   1424.87072      40.9588      46.3179    1409.24572      38.8735      43.8756
   1424.85546      41.0950      46.1569    1409.23046      39.0082      43.7245
   1424.84021      40.5549      46.3698    1409.21521      38.9212      43.2600
   1424.82495      40.8787      46.2997    1409.19995      38.9095      43.6269
   1424.80969      41.2054      46.1036    1409.18469      39.0014      42.9991
   1424.79443      41.1722      46.1300    1409.16943      39.3826      43.0421
   1424.77917      40.9702      46.2476    1409.15417      39.0504      42.8210
   1424.76391      40.9688      45.6029    1409.13891      38.9064      42.8469
   1424.74865      41.1200      45.8989    1409.12365      39.0264      42.7941
   1424.73339      41.6379      45.7549    1409.10839      39.2948      42.6857
   1424.71813      41.5212      45.6260    1409.09313      39.4783      42.8113
   1424.70288      41.0384      45.5962    1409.07788      39.2471      42.4303
   1424.68762      41.6341      45.3661    1409.06262      39.0488      42.2909
   1424.67236      41.6812      45.5814    1409.04736      39.4351      42.9354
   1424.65710      41.4289      45.4825    1409.03210      39.4506      42.6627
   1424.64184      41.1371      44.8953    1409.01684      39.1657      42.1252
   1424.62658      42.3495      45.1760    1409.00158      39.4817      42.2039
   1424.61132      41.8963      45.3882    1408.98632      39.6941      42.2057
   1424.59606      41.6298      45.0357    1408.97106      39.6048      42.4077
   1424.58081      41.4620      44.7990    1408.95581      39.4357      41.7293
   1424.56555      41.8516      45.2332    1408.94055      39.8065      41.7620
   1424.55029      41.6496      44.5105    1408.92529      39.4930      41.5055
   1424.53503      41.9229      45.0766    1408.91003      39.3909      41.2485
   1424.51977      42.5161      44.5560    1408.89477      39.5857      41.7587
   1424.50451      42.2325      44.6956    1408.87951      39.8841      41.5744
   1424.48925      41.8325      44.6876    1408.86425      39.7602      41.6882
   1424.47399      42.3679      44.6481    1408.84899      40.2628      41.5989
   1424.45874      42.3629      44.5212    1408.83374      39.8101      41.2251
   1424.44348      41.8118      44.0447    1408.81848      39.7933      40.9544
   1424.42822      42.0028      44.1765    1408.80322      39.9700      40.9688
   1424.41296      41.8066      44.4192    1408.78796      40.1402      41.1295
   1424.39770      42.6579      44.4024    1408.77270      39.8448      40.6506
   1424.38244      42.3773      44.1684    1408.75744      39.9227      40.8514
   1424.36718      42.4405      43.5161    1408.74218      40.5257      41.1533
   1424.35192      42.6793      44.0162    1408.72692      40.0144      40.7404
   1424.33667      42.5148      43.8694    1408.71167      40.0645      40.9031
   1424.32141      42.7067      43.9571    1408.69641      40.4196      40.7730
   1424.30615      42.6301      43.8961    1408.68115      40.4183      40.4838
   1424.29089      42.3649      43.4136    1408.66589      40.4121      40.4707
   1424.27563      43.0135      43.7729    1408.65063      40.4281      40.5685
   1424.26037      43.3778      43.5165    1408.63537      40.6957      40.0836
   1424.24511      42.7535      43.1055    1408.62011      40.4581      40.1454
   1424.22985      42.5875      43.3984    1408.60485      40.7044      40.0798
   1424.21459      43.4331      43.4712    1408.58959      40.6196      40.1259
   1424.19934      43.1538      42.6186    1408.57434      40.8807      39.9351
   1424.18408      42.8608      43.1664    1408.55908      40.9266      39.8068
   1424.16882      43.1565      42.6535    1408.54382      40.5528      40.2966
   1424.15356      42.8998      42.6704    1408.52856      40.8547      40.0311
   1424.13830      43.1957      43.3563    1408.51330      40.6489      40.2334
   1424.12304      43.5314      42.6813    1408.49804      40.9631      39.3785
   1424.10778      42.8491      42.7375    1408.48278      41.0491      39.8318
   1424.09252      43.4615      42.6261    1408.46752      40.9028      39.5520
   1424.07727      43.4218      42.8397    1408.45227      40.9189      39.5519
   1424.06201      43.6823      42.2470    1408.43701      40.9666      39.2974
   1424.04675      43.8684      42.6135    1408.42175      41.2026      39.2641
   1424.03149      44.0012      42.7508    1408.40649      41.2994      39.5049
   1424.01623      43.4293      42.2812    1408.39123      41.3278      39.0710
   1424.00097      43.7005      42.4494    1408.37597      41.2491      39.0618
   1423.98571      43.4389      42.2180    1408.36071      41.6050      39.2222
   1423.97045      43.6331      42.1720    1408.34545      41.3597      39.0497
   1423.95520      44.2102      42.1008    1408.33020      41.5583      38.6901
   1423.93994      43.9230      42.1531    1408.31494      41.7129      38.9687
   1423.92468      43.7817      41.6732    1408.29968      41.9312      38.5507
   1423.90942      43.8743      41.8658    1408.28442      41.6611      38.5930
   1423.89416      43.6810      42.2267    1408.26916      41.8466      38.7109
   1423.87890      43.8986      41.1306    1408.25390      41.2556      38.6620
   1423.86364      43.7388      41.6809    1408.23864      41.8239      38.8044
   1423.84838      43.9453      41.5865    1408.22338      41.6997      38.6340
   1423.83312      44.3928      41.2497    1408.20812      41.7671      38.4680
   1423.81787      44.2908      41.6257    1408.19287      41.6848      38.6544
   1423.80261      44.2988      40.8373    1408.17761      42.1245      37.8690
   1423.78735      44.0351      41.1987    1408.16235      41.9364      38.5903
   1423.77209      44.0240      41.0899    1408.14709      42.1864      38.2106
   1423.75683      44.6107      40.7620    1408.13183      42.5269      38.2011
   1423.74157      44.3657      41.1309    1408.11657      42.3908      38.0923
   1423.72631      44.3838      40.9563    1408.10131      42.4154      38.1157
   1423.71105      44.6688      40.9552    1408.08605      42.3723      38.0675
   1423.69580      44.8454      40.7549    1408.07080      41.9137      37.6778
   1423.68054      44.1928      41.0865    1408.05554      42.7155      38.2866
   1423.66528      44.2847      40.8200    1408.04028      42.2205      38.3664
   1423.65002      44.8946      40.4755    1408.02502      42.3511      37.6888
   1423.63476      44.6246      40.7525    1408.00976      42.0133      37.7915
   1423.61950      44.3609      40.7362    1407.99450      42.1239      37.9345
   1423.60424      44.4910      40.6444    1407.97924      42.9901      37.6283
   1423.58898      45.2405      40.5637    1407.96398      42.7995      37.5140
   1423.57373      44.9067      40.0435    1407.94873      42.6993      37.8219
   1423.55847      44.8539      40.3374    1407.93347      42.9016      37.2866
   1423.54321      44.9556      39.8670    1407.91821      42.6815      37.5775
   1423.52795      45.0826      40.1158    1407.90295      43.0470      37.4249
   1423.51269      45.1033      40.2230    1407.88769      42.8714      37.7001
   1423.49743      44.9231      39.7567    1407.87243      43.5729      37.2033
   1423.48217      45.3260      40.0875    1407.85717      43.0963      37.3404
   1423.46691      45.4248      39.8447    1407.84191      43.0936      37.4145
   1423.45166      45.5586      39.5713    1407.82666      43.1582      37.3258
   1423.43640      44.7550      39.9047    1407.81140      43.2661      37.0735
   1423.42114      45.5796      39.5486    1407.79614      43.3973      37.2362
   1423.40588      44.9505      39.6415    1407.78088      43.3347      37.3251
   1423.39062      45.6902      39.6141    1407.76562      43.6193      37.3184
   1423.37536      45.1758      39.3468    1407.75036      43.6407      37.1291
   1423.36010      45.0731      39.4765    1407.73510      43.4915      36.9864
   1423.34484      45.2263      39.1142    1407.71984      43.6153      36.4991
   1423.32958      45.3437      39.2800    1407.70458      43.2902      36.7110
   1423.31433      45.4371      39.1032    1407.68933      43.4278      36.5324
   1423.29907      45.3727      38.8562    1407.67407      43.4771      36.8314
   1423.28381      45.6151      38.9563    1407.65881      43.9362      36.8316
   1423.26855      45.1651      38.9285    1407.64355      43.7819      36.7334
   1423.25329      45.3171      38.8192    1407.62829      43.4816      36.7224
   1423.23803      45.6030      38.8389    1407.61303      44.3678      36.6056
   1423.22277      45.9414      39.0424    1407.59777      44.2479      36.4886
   1423.20751      45.5144      38.9223    1407.58251      43.7366      36.4509
   1423.19226      45.7301      38.6462    1407.56726      44.4298      36.5818
   1423.17700      45.3341      38.5200    1407.55200      44.1622      36.1968
   1423.16174      45.1488      38.6692    1407.53674      44.0458      36.3599
   1423.14648      45.5275      38.5718    1407.52148      44.4795      36.6146
   1423.13122      45.5779      38.7299    1407.50622      44.0411      36.2523
   1423.11596      45.2090      38.3162    1407.49096      44.8346      35.6265
   1423.10070      46.1339      38.3073    1407.47570      44.7073      36.4409
   1423.08544      45.5737      38.2062    1407.46044      44.6720      36.0855
   1423.07019      45.8857      38.5085    1407.44519      43.9025      36.6836
   1423.05493      45.8360      38.0496    1407.42993      44.3864      36.2132
   1423.03967      45.9437      38.0261    1407.41467      44.7114      35.9196
   1423.02441      45.7479      38.1988    1407.39941      44.9158      36.2521
   1423.00915      46.0479      38.0214    1407.38415      44.6979      36.0529
   1422.99389      45.4860      37.5740    1407.36889      44.4061      36.3525
   1422.97863      46.0009      37.8780    1407.35363      44.7175      35.9768
   1422.96337      45.7637      37.7272    1407.33837      45.0157      35.6749
   1422.94812      46.1295      37.5817    1407.32312      45.1545      36.1903
   1422.93286      46.0478      38.0291    1407.30786      44.4040      35.8794
   1422.91760      46.0861      37.5948    1407.29260      45.0548      35.6995
   1422.90234      45.9763      37.6182    1407.27734      44.9255      36.0265
   1422.88708      45.7493      37.3236    1407.26208      45.2536      35.8912
   1422.87182      46.2223      37.8034    1407.24682      44.7682      36.2263
   1422.85656      45.9613      37.3659    1407.23156      44.9236      35.9336
   1422.84130      45.8807      37.4129    1407.21630      45.6920      35.6642
   1422.82604      46.1618      37.0338    1407.20104      45.4964      35.9308
   1422.81079      46.3022      37.3102    1407.18579      45.1402      35.6606
   1422.79553      45.9683      36.9420    1407.17053      45.0223      35.7144
   1422.78027      45.9776      36.9275    1407.15527      45.5616      35.6453
   1422.76501      45.9737      36.8274    1407.14001      45.5516      35.9426
   1422.74975      46.0393      37.2157    1407.12475      45.5331      35.6983
   1422.73449      46.3911      37.1393    1407.10949      45.9227      35.8292
   1422.71923      46.2682      37.0364    1407.09423      45.5989      35.7406
   1422.70397      46.4656      36.5354    1407.07897      45.8289      35.7150
   1422.68872      46.4534      36.3518    1407.06372      45.7458      35.8900
   1422.67346      46.0927      36.1426    1407.04846      45.4558      35.6517
   1422.65820      46.3418      36.2973    1407.03320      45.5815      35.4615
   1422.64294      46.0583      36.5324    1407.01794      45.9637      35.6687
   1422.62768      46.3246      36.3447    1407.00268      46.1698      35.8420
   1422.61242      46.8991      36.5053    1406.98742      45.7015      35.3558
   1422.59716      46.1910      36.5971    1406.97216      45.8850      35.1019
   1422.58190      46.5260      36.3816    1406.95690      45.9920      35.2885
   1422.56665      46.6429      36.1762    1406.94165      45.8885      35.3871
   1422.55139      46.2991      36.2409    1406.92639      46.2648      35.7298
   1422.53613      46.6442      36.4021    1406.91113      46.3462      35.2971
   1422.52087      46.1237      36.3239    1406.89587      46.4950      35.6578
   1422.50561      45.9146      36.0935    1406.88061      46.0894      35.5196
   1422.49035      46.5218      36.1232    1406.86535      46.2060      35.6708
   1422.47509      46.5850      36.0840    1406.85009      46.0257      35.4477
   1422.45983      46.1528      35.7321    1406.83483      46.4163      35.5817
   1422.44458      46.0281      36.0428    1406.81958      46.0839      35.6840
   1422.42932      46.4186      35.9856    1406.80432      46.5018      35.5506
   1422.41406      46.3962      35.5434    1406.78906      46.4895      35.5726
   1422.39880      46.3460      35.8993    1406.77380      46.2527      34.9948
   1422.38354      46.5315      35.5486    1406.75854      46.2329      35.6602
   1422.36828      46.2627      35.6252    1406.74328      46.7992      35.0146
   1422.35302      47.1348      35.8240    1406.72802      46.6863      35.4157
   1422.33776      46.8578      35.5958    1406.71276      46.7724      35.7252
   1422.32250      46.3765      35.3604    1406.69750      45.9600      35.1608
   1422.30725      46.7547      35.3729    1406.68225      47.1191      35.8857
   1422.29199      46.9175      35.5236    1406.66699      46.9918      35.2945
   1422.27673      46.7532      35.3812    1406.65173      46.7680      35.4404
   1422.26147      46.9044      35.2705    1406.63647      46.8757      35.4177
   1422.24621      46.5165      35.4572    1406.62121      46.7865      35.0941
   1422.23095      46.2740      35.2842    1406.60595      47.0283      35.3135
   1422.21569      46.9943      35.8147    1406.59069      46.8829      35.5948
   1422.20043      47.2122      35.6584    1406.57543      46.8032      35.2082
   1422.18518      46.8926      35.0388    1406.56018      47.1568      35.4919
   1422.16992      46.5955      35.1705    1406.54492      47.1276      35.5550
   1422.15466      46.7032      35.5026    1406.52966      46.9193      35.3288
   1422.13940      46.3910      35.3217    1406.51440      46.8339      35.5059
   1422.12414      46.9914      35.1828    1406.49914      47.3623      35.4777
   1422.10888      46.8688      34.8484    1406.48388      47.0027      35.6324
   1422.09362      46.9379      35.0621    1406.46862      47.1933      35.5973
   1422.07836      47.1309      35.0955    1406.45336      47.3346      35.7428
   1422.06311      46.6082      34.7822    1406.43811      47.3933      35.3635
   1422.04785      46.5650      35.2195    1406.42285      47.6581      35.1748
   1422.03259      47.0766      35.0600    1406.40759      47.6997      35.4903
   1422.01733      47.2102      34.8721    1406.39233      47.2640      35.7237
   1422.00207      46.6089      34.8742    1406.37707      47.3041      35.7351
   1421.98681      47.0392      34.4879    1406.36181      46.9958      35.7584
   1421.97155      47.0804      34.6747    1406.34655      47.5823      35.7162
   1421.95629      47.3747      34.4326    1406.33129      47.4415      35.7572
   1421.94104      46.7704      34.7915    1406.31604      47.1777      35.6188
   1421.92578      46.8584      35.0367    1406.30078      47.2239      35.8704
   1421.91052      46.6085      34.0797    1406.28552      47.5684      35.7000
   1421.89526      47.2979      34.5909    1406.27026      47.2921      36.2228
   1421.88000      47.2728      34.4496    1406.25500      47.5033      36.2260
   1421.86474      47.2477      34.3082    1406.23974      47.7146      36.2292
   1421.84948      46.8995      34.0988    1406.22448      47.1009      35.5380
   1421.83422      47.2576      34.4113    1406.20922      47.1520      35.4509
   1421.81896      47.2479      34.2344    1406.19396      47.5897      35.7088
   1421.80371      47.3976      34.3786    1406.17871      47.5329      35.7142
   1421.78845      47.7722      34.5539    1406.16345      47.1756      35.7358
   1421.77319      46.8992      34.6266    1406.14819      48.0644      35.9954
   1421.75793      46.8955      34.4306    1406.13293      47.9385      35.7138
   1421.74267      47.5391      34.4698    1406.11767      48.1427      35.7732
   1421.72741      47.5194      34.4118    1406.10241      47.9122      36.0241
   1421.71215      48.0465      34.3280    1406.08715      47.7949      36.2175
   1421.69689      47.4453      34.0816    1406.07189      47.8894      35.9824
   1421.68164      47.0271      34.3813    1406.05664      47.4641      35.9198
   1421.66638      47.4138      33.7415    1406.04138      48.1223      36.2614
   1421.65112      47.4327      34.4539    1406.02612      47.8175      36.4908
   1421.63586      47.3454      34.0839    1406.01086      47.5798      35.9014
   1421.62060      47.4407      34.1880    1405.99560      48.2257      36.0773
   1421.60534      47.7535      34.2579    1405.98034      47.8284      36.2719
   1421.59008      48.2448      34.2639    1405.96508      47.8382      36.5504
   1421.57482      47.2871      34.0904    1405.94982      48.2620      36.4568
   1421.55957      47.6768      34.1332    1405.93457      47.7874      36.6544
   1421.54431      47.4485      34.4217    1405.91931      47.8333      36.2772
   1421.52905      47.5547      34.1211    1405.90405      47.7336      36.4412
   1421.51379      47.6068      34.3833    1405.88879      48.0944      36.5913
   1421.49853      47.8200      34.0839    1405.87353      47.8689      36.8581
   1421.48327      47.6117      34.0632    1405.85827      48.1827      36.1009
   1421.46801      47.5541      34.0404    1405.84301      47.5361      36.2932
   1421.45275      47.7263      34.0110    1405.82775      48.2188      36.2874
   1421.43750      47.3916      33.7557    1405.81250      48.1182      36.6429
   1421.42224      47.4735      34.5602    1405.79724      47.9343      36.6202
   1421.40698      48.0787      33.9327    1405.78198      47.7898      36.9903
   1421.39172      47.7330      34.0744    1405.76672      48.0571      36.8392
   1421.37646      47.7400      34.0507    1405.75146      47.6314      36.9030
   1421.36120      48.1543      34.0001    1405.73620      48.0187      37.0036
   1421.34594      47.6263      33.9680    1405.72094      47.9500      37.1873
   1421.33068      47.8587      33.8022    1405.70568      47.8433      37.0125
   1421.31542      48.0936      34.1396    1405.69042      48.4570      37.1943
   1421.30017      47.9661      33.6185    1405.67517      48.0826      36.7365
   1421.28491      47.9011      34.0173    1405.65991      48.4476      36.9531
   1421.26965      48.0772      33.8275    1405.64465      48.3969      37.2910
   1421.25439      48.5278      34.2643    1405.62939      48.3231      37.2014
   1421.23913      48.1217      34.0038    1405.61413      48.0956      37.7666
   1421.22387      48.0184      34.2668    1405.59887      47.9916      37.4547
   1421.20861      48.1484      33.8530    1405.58361      48.5194      37.3108
   1421.19335      47.7023      34.0176    1405.56835      48.5015      37.6135
   1421.17810      47.8911      34.1605    1405.55310      48.3105      37.3977
   1421.16284      47.7420      34.0941    1405.53784      48.2976      37.0822
   1421.14758      47.6597      33.8719    1405.52258      48.3464      37.7325
   1421.13232      48.6874      34.2354    1405.50732      47.9746      37.6966
   1421.11706      48.0956      33.8369    1405.49206      48.3328      37.8239
   1421.10180      48.1221      33.8187    1405.47680      47.9663      37.6914
   1421.08654      48.6518      34.1238    1405.46154      48.2297      37.9728
   1421.07128      48.7314      34.1918    1405.44628      48.0793      37.6721
   1421.05603      48.7798      34.0013    1405.43103      47.9028      37.7194
   1421.04077      48.8217      34.1743    1405.41577      48.2283      37.8239
   1421.02551      48.5672      34.5014    1405.40051      48.1061      38.0949
   1421.01025      49.1352      34.3798    1405.38525      48.2656      38.5113
   1420.99499      49.0897      34.5157    1405.36999      48.0096      38.2250
   1420.97973      49.9389      34.8842    1405.35473      47.7287      38.0144
   1420.96447      50.2155      34.7783    1405.33947      48.2977      38.3342
   1420.94921      50.3610      35.4165    1405.32421      47.8568      38.3564
   1420.93396      51.4288      36.0785    1405.30896      48.3610      38.5074
   1420.91870      53.3097      37.1994    1405.29370      48.2538      38.7103
   1420.90344      55.2529      38.8138    1405.27844      48.2286      38.4412
   1420.88818      59.3709      41.2028    1405.26318      47.4381      38.2075
   1420.87292      64.4118      43.7592    1405.24792      47.8214      38.7124
   1420.85766      69.9350      48.2232    1405.23266      47.7219      38.6699
   1420.84240      76.4751      52.6150    1405.21740      48.0878      39.0930
   1420.82714      78.9173      53.2505    1405.20214      47.5043      38.8499
   1420.81188      80.3079      53.8622    1405.18688      48.0140      38.5042
   1420.79663      81.6024      55.6257    1405.17163      47.8356      39.0393
   1420.78137      81.2791      54.5488    1405.15637      47.5916      38.9536
   1420.76611      72.6556      49.5050    1405.14111      47.9207      38.5787
   1420.75085      68.3362      46.7609    1405.12585      47.6399      39.0937
   1420.73559      67.1410      45.4407    1405.11059      47.6851      39.4581
   1420.72033      63.7566      44.0155    1405.09533      47.4646      39.2709
   1420.70507      58.7960      40.7717    1405.08007      47.2064      39.5813
   1420.68981      56.1473      38.7175    1405.06481      47.8771      39.5433
   1420.67456      55.5014      38.4746    1405.04956      47.4231      39.9094
   1420.65930      55.5112      38.3748    1405.03430      47.5589      39.9079
   1420.64404      56.9179      39.5589    1405.01904      47.2114      39.4477
   1420.62878      59.9572      40.7808    1405.00378      48.0137      39.8219
   1420.61352      63.7725      43.6068    1404.98852      47.0827      39.7440
   1420.59826      69.4172      47.5622    1404.97326      47.1876      39.8713
   1420.58300      79.9269      54.4421    1404.95800      47.5298      40.0710
   1420.56774     100.2302      67.6120    1404.94274      47.2454      39.6733
   1420.55249     126.3353      83.8761    1404.92749      47.5863      40.0583
   1420.53723     141.7203      92.3994    1404.91223      47.1948      39.8185
   1420.52197     144.9827      96.5737    1404.89697      47.3364      40.1885
   1420.50671     142.6924      94.8596    1404.88171      46.9562      40.0667
   1420.49145     139.8376      93.5196    1404.86645      47.1763      40.2721
   1420.47619     138.7048      92.7665    1404.85119      46.9432      40.2764
   1420.46093     139.9071      93.0626    1404.83593      47.6701      40.7370
   1420.44567     138.0843      92.4894    1404.82067      47.2361      40.1820
   1420.43042     119.8995      79.6920    1404.80542      47.0851      40.4055
   1420.41516     104.1543      70.0745    1404.79016      47.1588      40.6485
   1420.39990     108.2729      73.3054    1404.77490      46.6196      40.9501
   1420.38464     122.5620      82.6635    1404.75964      46.8821      41.2031
   1420.36938     137.6461      91.4912    1404.74438      46.7940      40.8160
   1420.35412     149.0575      98.0370    1404.72912      46.8420      40.6747
   1420.33886     153.2426     103.6076    1404.71386      47.0512      41.3367
   1420.32360     164.0644     108.3977    1404.69860      46.7817      41.2281
   1420.30834     169.1095     112.5223    1404.68334      46.7022      41.1571
   1420.29309     171.4752     112.7074    1404.66809      46.8958      41.4803
   1420.27783     172.1100     112.8888    1404.65283      46.1834      40.9854
   1420.26257     163.9052     108.9831    1404.63757      46.7736      41.5330
   1420.24731     145.4991      96.7698    1404.62231      46.7325      41.2262
   1420.23205     113.8287      76.7137    1404.60705      46.6995      41.8376
   1420.21679      87.9201      59.5431    1404.59179      46.6469      42.1659
   1420.20153      70.7306      49.2366    1404.57653      46.5052      42.3212
   1420.18627      62.3887      43.6254    1404.56127      46.3253      41.9901
   1420.17102      56.9617      39.9805    1404.54602      46.7966      41.5513
   1420.15576      53.9741      37.9130    1404.53076      46.6063      42.3323
   1420.14050      52.3280      37.3815    1404.51550      46.0776      42.1798
   1420.12524      52.3426      36.3398    1404.50024      46.4299      42.3379
   1420.10998      50.4006      36.3768    1404.48498      46.0160      42.3937
   1420.09472      50.2037      35.9470    1404.46972      46.4529      42.6430
   1420.07946      50.1656      35.8447    1404.45446      46.1957      42.5918
   1420.06420      49.8905      35.4993    1404.43920      45.6689      42.3981
   1420.04895      49.9965      35.5598    1404.42395      45.7503      42.5750
   1420.03369      50.1246      35.7116    1404.40869      46.2378      42.3807
   1420.01843      49.4269      35.8615    1404.39343      46.2349      42.6297
   1420.00317      49.4624      35.8326    1404.37817      46.0583      42.8895
   1419.98791      49.6074      35.7469    1404.36291      46.1213      42.7743
   1419.97265      49.6565      35.3103    1404.34765      46.2803      43.0212
   1419.95739      49.5231      35.7147    1404.33239      46.3249      43.3322
   1419.94213      49.3538      35.7200    1404.31713      45.9069      43.8513
   1419.92687      49.7205      35.6719    1404.30187      46.1291      43.5682
   1419.91162      49.2719      35.8718    1404.28662      46.3582      43.5803
   1419.89636      49.2516      35.7978    1404.27136      45.4714      44.0655
   1419.88110      49.8265      35.7662    1404.25610      45.9657      43.6035
   1419.86584      49.2866      35.4690    1404.24084      46.0946      43.6913
   1419.85058      49.6202      35.7118    1404.22558      45.8719      44.1596
   1419.83532      49.7014      35.6415    1404.21032      45.5054      44.2493
   1419.82006      49.3835      36.0157    1404.19506      45.2277      44.1556
   1419.80480      49.8268      36.2897    1404.17980      45.1336      44.3886
   1419.78955      49.6431      35.9748    1404.16455      45.3584      44.2574
   1419.77429      49.0919      36.2781    1404.14929      45.8411      44.0340
   1419.75903      49.3352      35.9863    1404.13403      45.4810      44.6013
   1419.74377      49.9882      35.8578    1404.11877      45.1195      44.6416
   1419.72851      49.0178      36.1405    1404.10351      45.4109      44.2213
   1419.71325      49.1236      36.4847    1404.08825      45.4291      44.9355
   1419.69799      49.2766      36.1376    1404.07299      45.1445      45.1639
   1419.68273      49.3054      36.2286    1404.05773      45.6658      44.8624
   1419.66748      49.0060      36.4078    1404.04248      45.3016      45.1895
   1419.65222      49.2817      36.2166    1404.02722      44.7788      45.2773
   1419.63696      49.6309      36.4231    1404.01196      45.7103      45.8454
   1419.62170      49.8240      36.6319    1403.99670      45.2275      45.1511
   1419.60644      49.4162      36.4986    1403.98144      44.9377      45.8630
   1419.59118      48.9532      36.3911    1403.96618      45.0167      45.9027
   1419.57592      48.8334      36.5653    1403.95092      44.6348      45.5601
   1419.56066      49.6087      36.5890    1403.93566      44.5752      46.0138
   1419.54541      49.4673      36.2994    1403.92041      44.9938      46.3537
   1419.53015      50.0120      36.9351    1403.90515      45.0673      46.4134
   1419.51489      49.1178      36.6112    1403.88989      44.8234      45.9670
   1419.49963      49.1968      36.5588    1403.87463      45.0149      46.0352
   1419.48437      49.6083      36.8838    1403.85937      44.7842      46.5270
   1419.46911      49.0701      36.9980    1403.84411      44.9200      46.3795
   1419.45385      49.0796      36.9296    1403.82885      44.8168      46.3040
   1419.43859      48.7738      36.8447    1403.81359      44.3900      46.9255
   1419.42333      48.9519      36.9457    1403.79833      44.9832      47.3123
   1419.40808      49.0896      36.7732    1403.78308      44.0630      47.2310
   1419.39282      49.5083      37.2644    1403.76782      44.6888      46.8327
   1419.37756      49.0202      36.9110    1403.75256      44.8635      47.0520
   1419.36230      49.5012      37.2473    1403.73730      44.3540      47.3533
   1419.34704      49.4477      37.3454    1403.72204      44.2543      47.7071
   1419.33178      49.3357      37.3101    1403.70678      44.2536      47.3801
   1419.31652      49.4658      37.6742    1403.69152      44.6883      47.1599
   1419.30126      49.2559      37.5796    1403.67626      44.8575      48.0208
   1419.28601      48.7348      37.5114    1403.66101      44.0745      47.5254
   1419.27075      49.4240      37.6333    1403.64575      44.5318      47.5897
   1419.25549      48.4462      37.7644    1403.63049      44.1596      48.3806
   1419.24023      49.0049      37.2972    1403.61523      44.3540      48.4760
   1419.22497      48.8201      37.8393    1403.59997      44.1215      48.2674
   1419.20971      49.2768      37.5020    1403.58471      44.6248      48.4752
   1419.19445      49.3138      37.5411    1403.56945      43.9595      48.4724
   1419.17919      49.1638      37.6660    1403.55419      44.1849      48.6972
   1419.16394      48.9435      38.1027    1403.53894      44.2348      49.1479
   1419.14868      49.3013      38.2795    1403.52368      43.7591      49.2618
   1419.13342      48.9620      37.6878    1403.50842      44.2504      49.0234
   1419.11816      49.1607      38.4689    1403.49316      43.9958      49.3439
   1419.10290      49.1739      38.4482    1403.47790      44.1952      49.1261
   1419.08764      48.5241      38.3175    1403.46264      44.2138      49.0476
   1419.07238      49.2683      38.1966    1403.44738      44.3749      49.8266
   1419.05712      49.0707      38.2527    1403.43212      44.1082      49.8105
   1419.04187      49.0798      38.4942    1403.41687      43.9026      50.0746
   1419.02661      48.5867      38.1904    1403.40161      43.6169      50.4210
   1419.01135      49.2173      38.4214    1403.38635      44.0248      49.9523
   1418.99609      49.4221      38.9380    1403.37109      43.6598      51.0258
   1418.98083      48.9626      38.5503    1403.35583      43.4836      50.6536
   1418.96557      48.9312      38.4168    1403.34057      43.9202      50.3891
   1418.95031      48.6741      38.6391    1403.32531      43.7848      51.1562
   1418.93505      48.8858      39.0797    1403.31005      43.8798      50.8553
   1418.91979      48.9869      38.9499    1403.29479      43.8608      51.2978
   1418.90454      48.5818      38.7775    1403.27954      43.5517      51.3009
   1418.88928      48.7670      38.8363    1403.26428      44.3487      51.4246
   1418.87402      48.9127      39.3224    1403.24902      43.6584      50.8027
   1418.85876      48.6207      39.4572    1403.23376      44.3603      51.7584
   1418.84350      48.6494      39.3839    1403.21850      43.6330      52.1068
   1418.82824      48.8582      39.3039    1403.20324      43.4723      51.5520
   1418.81298      48.4727      39.4587    1403.18798      43.9741      51.7790
   1418.79772      48.7753      39.2502    1403.17272      43.9040      52.3518
   1418.78247      48.6243      39.7598    1403.15747      43.7262      52.0826
   1418.76721      48.9944      39.6790    1403.14221      44.1094      52.0723
   1418.75195      48.4802      39.7195    1403.12695      43.9745      52.3505
   1418.73669      48.7264      39.5286    1403.11169      43.6706      52.6080
   1418.72143      48.6682      40.2063    1403.09643      43.5006      52.6415
   1418.70617      48.6092      39.9348    1403.08117      44.0207      53.3115
   1418.69091      48.6068      39.9371    1403.06591      43.7059      52.6576
   1418.67565      49.1109      40.4367    1403.05065      43.6923      52.8714
   1418.66040      48.7176      40.0144    1403.03540      43.8812      53.4234
   1418.64514      48.4167      39.9045    1403.02014      43.9731      53.2698
   1418.62988      48.3897      40.3431    1403.00488      43.7426      53.3268
   1418.61462      48.9017      40.1993    1402.98962      43.8724      54.0482
   1418.59936      48.1175      40.8299    1402.97436      44.1783      53.8432
   1418.58410      49.0071      40.4121    1402.95910      44.2556      54.4136
   1418.56884      48.2680      40.7951    1402.94384      43.8649      54.4501
   1418.55358      48.5209      40.6783    1402.92858      44.1643      54.3373
   1418.53833      48.7418      40.7934    1402.91333      43.9619      54.0175
   1418.52307      48.3927      40.3632    1402.89807      44.2266      54.5578
   1418.50781      48.4112      41.0149    1402.88281      43.9258      53.8845
   1418.49255      48.1696      40.6415    1402.86755      43.9765      54.6124
   1418.47729      47.8577      40.8822    1402.85229      44.0170      55.0273
   1418.46203      48.4303      41.4005    1402.83703      44.0251      55.1519
   1418.44677      48.5294      41.1851    1402.82177      44.1122      55.4358
   1418.43151      48.2237      41.7113    1402.80651      43.6356      55.1718
   1418.41625      48.2929      41.4300    1402.79125      43.4505      55.4742
   1418.40100      48.7776      41.6277    1402.77600      43.8800      55.2515
   1418.38574      48.4343      41.5054    1402.76074      44.0454      55.9525
   1418.37048      48.5335      42.1444    1402.74548      44.2377      54.9477
   1418.35522      48.0183      41.9336    1402.73022      43.9242      55.7623
   1418.33996      48.6535      41.7488    1402.71496      44.3612      55.8461
   1418.32470      48.5900      41.8195    1402.69970      43.7664      56.3969
   1418.30944      48.4194      41.7824    1402.68444      44.0987      56.5086
   1418.29418      48.1553      41.8499    1402.66918      44.2509      56.7641
   1418.27893      48.4219      41.7735    1402.65393      43.8444      56.7026
   1418.26367      48.7718      41.6678    1402.63867      44.1324      56.8857
   1418.24841      48.3619      41.9431    1402.62341      44.5184      56.9379
   1418.23315      48.0343      42.5946    1402.60815      44.0108      57.0961
   1418.21789      48.3470      42.5305    1402.59289      44.3456      57.3424
   1418.20263      48.1841      42.4701    1402.57763      44.1252      57.6828
   1418.18737      48.2276      42.5140    1402.56237      44.1596      57.6159
   1418.17211      48.1306      42.6572    1402.54711      44.0220      58.3325
   1418.15686      48.3778      42.9117    1402.53186      43.8500      58.3986
   1418.14160      47.7799      42.4483    1402.51660      44.3838      58.3031
   1418.12634      48.1687      43.2025    1402.50134      44.3313      58.1601
   1418.11108      48.2525      42.8761    1402.48608      44.0155      57.9035
   1418.09582      47.9160      43.5609    1402.47082      44.3783      58.5897
   1418.08056      48.3870      43.4573    1402.45556      44.2301      59.0255
   1418.06530      48.0519      43.1537    1402.44030      44.4512      59.0816
   1418.05004      48.5398      43.3095    1402.42504      44.6794      59.3405
   1418.03479      48.2504      43.3450    1402.40979      44.5691      59.1237
   1418.01953      47.9144      43.4671    1402.39453      44.0187      59.0795
   1418.00427      48.2630      43.8185    1402.37927      44.6653      59.9377
   1417.98901      48.2288      43.7851    1402.36401      44.0315      59.5862
   1417.97375      48.2469      43.8399    1402.34875      44.4754      60.2257
   1417.95849      48.2607      43.9207    1402.33349      44.4325      60.5219
   1417.94323      48.4188      43.6725    1402.31823      44.6228      60.1659
   1417.92797      47.9360      43.6983    1402.30297      44.2900      60.2431
   1417.91271      48.1299      43.8014    1402.28771      44.8725      60.4233
   1417.89746      47.7182      44.2946    1402.27246      44.5471      60.5638
   1417.88220      47.4447      44.8315    1402.25720      44.7729      61.0692
   1417.86694      47.5246      44.1534    1402.24194      44.4784      60.3723
   1417.85168      48.2972      44.3910    1402.22668      45.1155      61.3419
   1417.83642      47.8733      44.7829    1402.21142      45.1546      60.7239
   1417.82116      47.4305      44.8386    1402.19616      45.1721      60.8472
   1417.80590      48.0386      44.6597    1402.18090      44.8336      61.0969
   1417.79064      47.8920      45.1485    1402.16564      44.1972      61.2887
   1417.77539      47.6683      44.7676    1402.15039      45.0510      61.6819
   1417.76013      47.9514      44.8946    1402.13513      45.2516      61.8244
   1417.74487      48.0509      45.1613    1402.11987      44.6782      61.9772
   1417.72961      48.4487      45.4804    1402.10461      44.4869      61.9954
   1417.71435      48.0229      45.6161    1402.08935      44.7925      62.3802
   1417.69909      47.7893      45.5483    1402.07409      44.8381      61.9710
   1417.68383      47.9790      45.5779    1402.05883      44.8126      62.3634
   1417.66857      47.4161      45.5868    1402.04357      44.7414      62.5772
   1417.65332      47.7797      45.9265    1402.02832      44.8445      62.8275
   1417.63806      48.0016      46.0243    1402.01306      45.1508      62.6033
   1417.62280      47.7543      46.0091    1401.99780      45.1098      63.6727
   1417.60754      47.9936      45.9976    1401.98254      45.1802      62.6294
   1417.59228      47.6054      45.8535    1401.96728      45.0115      63.7644
   1417.57702      48.2861      45.9755    1401.95202      45.0039      63.2342
   1417.56176      47.9129      46.2085    1401.93676      45.2207      64.3615
   1417.54650      47.9823      46.0727    1401.92150      44.8077      63.7576
   1417.53125      47.8299      46.6103    1401.90625      45.2577      63.4570
   1417.51599      48.3662      47.1995    1401.89099      44.8568      64.0569
   1417.50073      47.3666      46.4844    1401.87573      45.2571      64.2171
   1417.48547      47.2810      46.7320    1401.86047      45.6405      64.1714
   1417.47021      47.8559      46.7056    1401.84521      45.1066      64.6037
   1417.45495      48.1587      46.8381    1401.82995      45.4432      64.8271
   1417.43969      47.4353      46.7335    1401.81469      45.1778      65.0654
   1417.42443      47.2708      47.5340    1401.79943      45.0741      65.0041
   1417.40917      48.0424      47.6692    1401.78417      45.1555      64.2560
   1417.39392      47.6201      47.6454    1401.76892      45.2381      64.3872
   1417.37866      48.4326      47.0735    1401.75366      45.3263      65.3225
   1417.36340      47.7938      47.4128    1401.73840      45.2573      65.2150
   1417.34814      47.6354      47.6044    1401.72314      45.6848      65.7218
   1417.33288      47.7516      47.1637    1401.70788      45.4091      65.5355
   1417.31762      47.5932      47.6722    1401.69262      45.3111      65.7778
   1417.30236      47.5379      48.0258    1401.67736      45.3138      66.2592
   1417.28710      48.0727      47.7536    1401.66210      45.1881      65.8833
   1417.27185      47.4246      47.4324    1401.64685      44.9883      65.4882
   1417.25659      47.6372      47.8246    1401.63159      45.3174      65.8982
   1417.24133      47.8308      47.5666    1401.61633      45.4837      66.2792
   1417.22607      47.4253      47.8030    1401.60107      45.3907      66.8495
   1417.21081      47.8625      48.0883    1401.58581      45.4835      66.7709
   1417.19555      47.2997      48.2120    1401.57055      45.2893      66.4891
   1417.18029      47.8571      48.2521    1401.55529      45.7687      65.9949
   1417.16503      47.4784      48.5284    1401.54003      45.3367      66.7537
   1417.14978      47.1190      48.2129    1401.52478      45.6231      66.5968
   1417.13452      46.9760      48.7901    1401.50952      45.3015      66.7422
   1417.11926      47.4731      48.5609    1401.49426      45.2501      66.9866
   1417.10400      47.2766      48.4095    1401.47900      45.5345      66.6239
   1417.08874      47.2459      48.9051    1401.46374      45.4587      67.3203
   1417.07348      46.9661      48.8929    1401.44848      45.0885      67.2936
   1417.05822      47.3297      48.7097    1401.43322      45.4432      67.6557
   1417.04296      47.2766      48.5456    1401.41796      46.0155      66.6355
   1417.02771      47.4679      48.7204    1401.40271      45.2516      67.6244
   1417.01245      47.1440      48.6084    1401.38745      45.9215      67.4579
   1416.99719      47.1578      49.2291    1401.37219      45.2535      67.3260
   1416.98193      47.5362      48.9638    1401.35693      45.1072      67.4122
   1416.96667      47.3944      49.2907    1401.34167      45.2504      67.9573
   1416.95141      46.7685      48.9059    1401.32641      45.3667      68.1852
   1416.93615      47.0909      49.3419    1401.31115      45.2758      67.8961
   1416.92089      46.7650      49.0601    1401.29589      45.2096      67.9237
   1416.90563      47.1665      48.8661    1401.28063      45.3094      67.1456
   1416.89038      47.1585      49.2349    1401.26538      44.6704      68.2928
   1416.87512      47.4931      49.6948    1401.25012      45.0703      68.6083
   1416.85986      46.6427      49.4649    1401.23486      45.4175      67.8386
   1416.84460      46.8768      49.7562    1401.21960      45.4133      68.3592
   1416.82934      46.9890      49.5545    1401.20434      45.0008      68.1453
   1416.81408      46.9117      49.2460    1401.18908      44.8888      68.3747
   1416.79882      46.4451      49.5120    1401.17382      45.2437      68.3467
   1416.78356      46.6021      49.5362    1401.15856      45.1421      67.1870
   1416.76831      46.6238      49.1617    1401.14331      44.9575      67.5745
   1416.75305      46.5672      49.7053    1401.12805      44.5943      67.6134
   1416.73779      46.1383      50.1989    1401.11279      44.9486      68.1940
   1416.72253      46.2400      49.4123    1401.09753      45.3692      68.3299
   1416.70727      46.2655      49.7426    1401.08227      44.6067      68.6800
   1416.69201      45.8275      49.9087    1401.06701      44.7481      68.4794
   1416.67675      45.8501      49.4464    1401.05175      45.1161      67.8490
   1416.66149      46.2558      49.9456    1401.03649      44.5249      68.0227
   1416.64624      45.9981      49.6668    1401.02124      44.1351      68.5934
   1416.63098      45.8647      49.5904    1401.00598      43.9180      68.8269
   1416.61572      45.8331      49.7481    1400.99072      44.6069      68.2727
   1416.60046      45.9811      49.9799    1400.97546      44.3694      67.8640
   1416.58520      45.7641      49.8791    1400.96020      44.3643      67.9259
   1416.56994      45.9965      50.0440    1400.94494      44.5028      67.8221
   1416.55468      45.7196      49.9728    1400.92968      43.7863      68.0263
   1416.53942      45.2075      49.5924    1400.91442      44.5433      68.2195
   1416.52417      45.6266      50.0429    1400.89917      43.8999      68.2477
   1416.50891      45.8217      49.7895    1400.88391      44.0451      68.1894
   1416.49365      45.3361      49.7638    1400.86865      43.8750      67.4747
   1416.47839      45.1819      49.5507    1400.85339      43.7011      68.2566
   1416.46313      44.7319      49.7928    1400.83813      43.4733      68.0026
   1416.44787      44.9764      49.0528    1400.82287      43.4483      67.2314
   1416.43261      45.3736      49.9419    1400.80761      43.4962      67.6531
   1416.41735      45.0145      50.0370    1400.79235      43.5989      68.0527
   1416.40209      44.8393      49.4277    1400.77709      43.3299      67.9320
   1416.38684      45.0528      49.5242    1400.76184      43.3317      67.5072
   1416.37158      44.8497      49.5032    1400.74658      43.0615      67.7068
   1416.35632      44.5230      50.0295    1400.73132      42.8435      67.6904
   1416.34106      44.3822      49.7452    1400.71606      42.6786      67.3108
   1416.32580      44.6338      49.3741    1400.70080      42.8698      67.2083
   1416.31054      44.6058      49.9502    1400.68554      42.6073      66.7839
   1416.29528      44.1492      49.6498    1400.67028      42.8087      66.7900
   1416.28002      44.1670      48.7470    1400.65502      42.3451      66.9695
   1416.26477      44.2253      49.1718    1400.63977      42.1183      66.8774
   1416.24951      43.9771      49.5880    1400.62451      42.3149      66.5668
   1416.23425      44.0470      49.2309    1400.60925      42.1821      66.3214
   1416.21899      44.0182      48.7358    1400.59399      41.7398      66.1499
   1416.20373      43.8715      49.0996    1400.57873      42.5880      66.2227
   1416.18847      43.6031      49.3135    1400.56347      42.1103      66.8991
   1416.17321      43.4246      48.5662    1400.54821      41.7157      65.8143
   1416.15795      43.4905      49.3489    1400.53295      41.4024      65.3962
   1416.14270      43.0628      48.8770    1400.51770      41.8907      66.8393
   1416.12744      43.3703      48.6944    1400.50244      40.8223      65.7471
   1416.11218      42.6723      48.6926    1400.48718      41.2212      66.1578
   1416.09692      42.6177      48.4342    1400.47192      41.0821      65.1168
   1416.08166      43.0782      48.5260    1400.45666      41.1086      65.2162
   1416.06640      42.9412      48.3616    1400.44140      40.6091      65.6434
   1416.05114      42.9337      48.1825    1400.42614      40.4197      64.8801
   1416.03588      42.3362      48.6015    1400.41088      40.4907      64.6355
   1416.02062      42.2010      48.0328    1400.39562      40.5258      64.6916
   1416.00537      42.3469      47.8584    1400.38037      39.8109      64.3309
   1415.99011      41.7161      48.1211    1400.36511      39.8648      64.1001
   1415.97485      41.3205      47.8737    1400.34985      39.8729      64.5400
   1415.95959      42.0718      47.6516    1400.33459      39.8637      63.7175
   1415.94433      41.7558      47.6197    1400.31933      39.7488      63.4438
   1415.92907      41.6369      47.1550    1400.30407      39.6789      63.3630
   1415.91381      41.4399      47.2737    1400.28881      39.1964      63.1832
   1415.89855      41.2730      47.6546    1400.27355      38.9707      62.5307
   1415.88330      41.4748      46.8017    1400.25830      38.6504      62.9017
   1415.86804      41.2938      47.1801    1400.24304      38.7880      63.1494
   1415.85278      40.9890      47.2589    1400.22778      38.3036      63.0771
   1415.83752      40.5212      46.8297    1400.21252      38.2801      62.6611
   1415.82226      40.4428      47.0337    1400.19726      37.8373      62.5846
   1415.80700      40.0230      46.5651    1400.18200      38.0698      61.9371
   1415.79174      40.4016      46.3377    1400.16674      37.9600      61.4430
   1415.77648      40.0276      46.6330    1400.15148      37.6117      61.7569
   1415.76123      39.6416      46.2606    1400.13623      37.3848      60.7109
   1415.74597      39.8770      46.0838    1400.12097      36.6922      60.6487
   1415.73071      39.6350      46.4088    1400.10571      37.1624      61.1637
   1415.71545      39.5750      45.6840    1400.09045      36.9940      60.5875
   1415.70019      39.3024      45.6689    1400.07519      36.9918      60.9478
   1415.68493      38.9448      45.5547    1400.05993      36.3667      60.1231
   1415.66967      39.2516      45.3713    1400.04467      36.2392      59.7803
   1415.65441      38.7071      45.3471    1400.02941      36.3610      59.4222
   1415.63916      38.8115      44.9748    1400.01416      35.9858      59.3279
   1415.62390      38.1879      44.9438    1399.99890      35.5999      58.7071
   1415.60864      38.0433      44.6905    1399.98364      35.8182      58.8936
   1415.59338      38.2193      44.5419    1399.96838      35.3620      58.4753
   1415.57812      38.1899      43.9882    1399.95312      35.3756      58.5258
   1415.56286      37.7572      43.6602    1399.93786      35.3063      57.7594
   1415.54760      37.3466      44.1925    1399.92260      35.1520      57.8760
   1415.53234      37.6278      43.8339    1399.90734      34.5613      58.1652
   1415.51708      37.2037      43.8542    1399.89208      34.4962      57.5708
   1415.50183      37.2219      43.6057    1399.87683      34.5639      57.2845
   1415.48657      37.0711      43.3959    1399.86157      34.2885      56.7165
   1415.47131      36.2579      43.1396    1399.84631      33.8856      56.7503
   1415.45605      36.5831      42.9273    1399.83105      33.6872      56.3516
   1415.44079      36.2755      42.5369    1399.81579      33.3994      55.1574
   1415.42553      36.0137      42.5747    1399.80053      33.1427      55.7740
   1415.41027      35.9243      42.3210    1399.78527      33.2791      55.3530
   1415.39501      35.6408      42.0416    1399.77001      33.0432      55.2135
   1415.37976      35.7242      42.1318    1399.75476      32.7128      55.0824
   1415.36450      35.4122      41.6604    1399.73950      32.4392      54.9329
   1415.34924      34.9153      41.6101    1399.72424      32.1573      53.8291
   1415.33398      34.7033      41.1400    1399.70898      31.9095      53.5021
   1415.31872      34.5943      41.4506    1399.69372      32.0777      53.3204
   1415.30346      34.5992      40.9306    1399.67846      31.6160      53.0200
   1415.28820      34.7106      40.5965    1399.66320      31.5603      52.7703
   1415.27294      34.2922      40.2206    1399.64794      31.6828      52.7865
   1415.25769      34.1404      40.0018    1399.63269      31.1987      52.3657
   1415.24243      33.7989      39.9364    1399.61743      30.8787      52.0153
   1415.22717      33.6455      39.3776    1399.60217      30.5878      51.9197
   1415.21191      33.5011      39.4347    1399.58691      30.4726      50.8670
   1415.19665      33.3684      39.3439    1399.57165      30.5338      51.0214
   1415.18139      32.9286      39.2264    1399.55639      30.1926      50.7280
   1415.16613      32.6717      39.1001    1399.54113      30.0464      50.5004
   1415.15087      32.7005      39.1274    1399.52587      29.6354      50.4433
   1415.13562      32.5655      38.7040    1399.51062      29.5988      49.8926
   1415.12036      32.2902      38.1129    1399.49536      29.2933      49.7881
   1415.10510      32.0319      38.0681    1399.48010      29.3612      49.0382
   1415.08984      31.8438      37.7788    1399.46484      28.9301      48.6187
   1415.07458      31.8969      38.0895    1399.44958      28.8995      48.1674
   1415.05932      31.5124      37.7709    1399.43432      28.4997      48.4016
   1415.04406      31.3510      37.3030    1399.41906      28.5889      47.7143
   1415.02880      31.2188      36.9826    1399.40380      28.0475      47.8646
   1415.01354      30.9285      36.9159    1399.38854      28.0998      47.6839
   1414.99829      30.6964      36.6015    1399.37329      27.9376      47.0987
   1414.98303      30.8744      36.1023    1399.35803      27.6932      46.9950
   1414.96777      30.2641      35.7753    1399.34277      27.5608      46.8140
   1414.95251      30.0520      36.0397    1399.32751      27.2934      46.3382
   1414.93725      30.0158      35.3185    1399.31225      27.0175      45.8828
   1414.92199      29.7271      35.4351    1399.29699      26.8687      45.6741
   1414.90673      29.5423      35.1685    1399.28173      26.8459      44.8223
   1414.89147      29.2122      35.4305    1399.26647      26.6809      44.9977
   1414.87622      29.4359      34.7529    1399.25122      26.4430      44.7427
