#     FILENAME=Skynet_59007_gl0_45077_54662.A.spect.cal.txt
#     BASENAME=Skynet_59007_gl0_45077_54662
#      CONTROL=SKYNET
#     PROJCODE=Skynet_59007_gl0_45077
#     DATAROOT=/raid/scratch/cyborg/SkynetData
#      DATADIR=/raid/scratch/cyborg
#     DATADIR2=/raid/scratch/cyborg/SkynetData/Skynet_59007_gl0_45077/Cyborg
#     SCANNAME=2018_05_24_20
#     SRC_NAME=gl0
#     OBSERVER=reichart_2118
#     DATE_OBS=2020-06-07T04:26:29.370
#        OBSID=45077
#      SCANNUM=54662
#          MJD=59007.1850622
#          UTC=15989
#     SCANTYPE=track
#     DATAMODE=HIRES
#     RECEIVER=Rx1_2
#      OBSFREQ=1395.0000
# Actual_FREQ1=1421.8800,
# Actual_FREQ2=1406.2550
#    LO1Tuning=6856.2600
#     RFFILTER=1355_1435
#        OBSBW=-15.6250
#     EFFBANDW=15.6250
#        NCHAN=1024
#    STARTCHAN=51
#     STOPCHAN=972
#         TINT=0.3000
#         TBIN=0.00013107
#       ACCLEN=2048 
#     DURATION=17.70
#     EXPOSURE=2.40
#        FOCUS=37.071
#       RA,DEC=17:45:54.81, -28:56:09.69
#      RA(deg)=266.41800
#     DEC(deg)=-28.93590
#   WIDTH(deg)=0.0066x0.0013
#    AZIM(deg)=157.4720
#    ELEV(deg)=18.8770
#     COORDREF=LNG_LAT
#         HREF=0.0000
#         VREF=0.0000
#      RADESYS=FK5
#       OFFSYS=RADEC
#      EQUINOX=2000.00
#     IFATTENS=27.00, 11.00
#   BALANCELEV=1.200 
#   POWER_XLYR=[0.35, 0.72] 
#       VELDEF=RADI-OBS 
#     VELOCITY=0.000 
#         NPOL=2 
#      POLMODE=Linear 
#      POLTYPE=XXYY 
#      WARNING=None 
#     NOISECAL=HI 
#       PRECAL=2 
#      POSTCAL=2 
#     CRYOTEMP=15 
#      BOXTEMP=33 
#         TSYS=XX1:156.66, YY1:144.18
#         TSYS=XX2:147.49, YY2:165.93
#         TCAL=XX1:9.17, YY1:10.07
#         TCAL=XX2:9.16, YY2:9.99
# Calibrated spectra 
#                
#                
#Freq1(MHz)         XX1          YY1   Freq2(MHz)       XX2         YY2 
   1428.91430      82.2162      94.0391    1413.28930      91.2584     128.1952
   1428.89904      82.2071      94.6391    1413.27404      90.7688     128.2241
   1428.88378      82.8881      95.1337    1413.25878      92.5982     130.3200
   1428.86853      82.6806      95.0744    1413.24353      92.2489     129.4045
   1428.85327      83.3201      96.6379    1413.22827      92.4321     130.1345
   1428.83801      83.5544      96.6496    1413.21301      93.6147     132.0632
   1428.82275      83.7121      96.2108    1413.19775      93.4139     131.1373
   1428.80749      83.7858      97.0657    1413.18249      93.5666     131.7944
   1428.79223      84.3969      98.2083    1413.16723      93.9140     131.5917
   1428.77697      84.1501      97.7231    1413.15197      94.8302     134.0575
   1428.76171      85.0974      99.1386    1413.13671      95.4679     133.8360
   1428.74646      84.4758     100.7950    1413.12146      97.0584     135.2625
   1428.73120      84.7493     100.9848    1413.10620      95.8952     135.1749
   1428.71594      85.6065     100.4436    1413.09094      97.3824     135.8600
   1428.70068      85.2760     100.9232    1413.07568      97.5883     136.2668
   1428.68542      85.7220     102.0564    1413.06042      98.2481     136.9148
   1428.67016      86.7766     102.3045    1413.04516      97.8902     138.3676
   1428.65490      87.6667     102.4989    1413.02990      99.2810     138.3432
   1428.63964      87.5272     103.5011    1413.01464     100.0937     139.9679
   1428.62438      87.4146     104.4467    1412.99938     100.4105     140.8398
   1428.60913      87.2631     104.8665    1412.98413     101.1242     141.1285
   1428.59387      87.4183     105.8138    1412.96887     101.8406     142.1497
   1428.57861      88.0783     105.4092    1412.95361     101.8686     141.6537
   1428.56335      89.0211     105.9393    1412.93835     102.0741     143.4897
   1428.54809      88.5442     107.3961    1412.92309     102.2118     141.3065
   1428.53283      89.5491     107.0245    1412.90783     102.6661     143.4923
   1428.51757      89.4670     108.9014    1412.89257     102.8544     144.5064
   1428.50231      89.6495     108.7117    1412.87731     105.2809     145.2224
   1428.48706      90.8272     109.3354    1412.86206     104.7747     146.4602
   1428.47180      90.5212     109.4449    1412.84680     105.3673     146.5021
   1428.45654      90.3989     111.2027    1412.83154     105.9971     147.8965
   1428.44128      91.0008     111.6704    1412.81628     107.1286     147.0768
   1428.42602      91.6418     112.5029    1412.80102     107.0116     149.0614
   1428.41076      92.3960     112.0570    1412.78576     108.4075     149.2833
   1428.39550      92.6330     112.9236    1412.77050     108.0786     148.9186
   1428.38024      92.9278     115.1791    1412.75524     109.2410     149.8963
   1428.36499      92.9754     115.0609    1412.73999     110.4730     151.1014
   1428.34973      93.2803     115.8778    1412.72473     109.9052     151.6318
   1428.33447      93.6253     116.7779    1412.70947     110.7540     152.6205
   1428.31921      93.7561     116.4232    1412.69421     111.2358     154.2765
   1428.30395      93.8709     118.1914    1412.67895     111.2464     152.9874
   1428.28869      94.1311     118.5085    1412.66369     111.6219     155.5307
   1428.27343      95.2900     119.8029    1412.64843     112.2641     155.7799
   1428.25817      96.0196     119.5743    1412.63317     114.5275     156.7946
   1428.24292      95.3999     120.5968    1412.61792     114.5969     157.6030
   1428.22766      96.8582     121.2910    1412.60266     113.9748     158.6064
   1428.21240      97.6582     121.0660    1412.58740     115.4413     157.2692
   1428.19714      97.3411     121.7661    1412.57214     115.6221     159.4281
   1428.18188      98.2554     123.4068    1412.55688     115.5183     159.3496
   1428.16662      98.0894     123.9305    1412.54162     116.6313     157.9427
   1428.15136      98.0637     123.7133    1412.52636     117.4756     160.8868
   1428.13610      99.3836     125.3804    1412.51110     116.3550     161.1236
   1428.12084     100.1538     126.6544    1412.49584     117.8865     161.5450
   1428.10559     100.1925     126.2292    1412.48059     118.5872     161.5845
   1428.09033     101.0296     127.4654    1412.46533     118.7121     164.8225
   1428.07507      99.3839     128.1275    1412.45007     119.0097     163.8723
   1428.05981     102.0413     127.9469    1412.43481     119.9788     165.2830
   1428.04455     101.0686     131.1667    1412.41955     120.3245     165.1071
   1428.02929     102.1818     131.2515    1412.40429     120.5837     164.6805
   1428.01403     101.9843     129.8566    1412.38903     121.2733     165.8472
   1427.99877     101.6254     132.0380    1412.37377     120.0914     166.5863
   1427.98352     102.8539     131.8402    1412.35852     122.4191     167.5910
   1427.96826     104.1378     133.5670    1412.34326     121.9253     168.1206
   1427.95300     103.5806     134.1070    1412.32800     124.2988     168.2515
   1427.93774     103.6434     133.8788    1412.31274     124.7619     169.4339
   1427.92248     104.5871     134.6010    1412.29748     124.2573     168.8266
   1427.90722     105.5881     136.7045    1412.28222     125.0936     169.5854
   1427.89196     105.8969     136.9893    1412.26696     125.4826     170.1773
   1427.87670     105.3575     137.0623    1412.25170     126.4019     170.2243
   1427.86145     105.9067     138.0325    1412.23645     126.1584     170.8375
   1427.84619     106.4160     139.6185    1412.22119     126.7088     172.6384
   1427.83093     106.6737     139.7255    1412.20593     125.9853     171.8225
   1427.81567     107.7222     139.2855    1412.19067     126.0985     173.5699
   1427.80041     107.3502     140.2024    1412.17541     126.5581     172.9563
   1427.78515     108.3810     141.2535    1412.16015     127.2201     172.5294
   1427.76989     108.5737     141.4989    1412.14489     127.7869     173.7004
   1427.75463     108.2159     141.7240    1412.12963     127.5082     174.4063
   1427.73937     109.5228     143.2881    1412.11437     129.1990     176.5235
   1427.72412     109.3634     143.8914    1412.09912     128.4252     175.4398
   1427.70886     110.0007     143.6903    1412.08386     129.0003     175.2750
   1427.69360     109.8526     147.0573    1412.06860     130.9070     175.0908
   1427.67834     110.5622     145.5796    1412.05334     129.7889     176.9765
   1427.66308     110.8100     147.2249    1412.03808     130.0480     177.5039
   1427.64782     110.6198     146.3621    1412.02282     130.2857     177.2863
   1427.63256     111.1754     147.6346    1412.00756     131.3047     176.9349
   1427.61730     112.1294     147.6194    1411.99230     131.3834     177.7623
   1427.60205     112.3987     148.1597    1411.97705     132.7905     178.7739
   1427.58679     112.9374     149.8213    1411.96179     132.0093     180.6743
   1427.57153     113.4618     149.0972    1411.94653     132.0749     180.2231
   1427.55627     113.4933     150.6056    1411.93127     133.3561     180.2471
   1427.54101     113.4924     151.5201    1411.91601     132.6729     181.3022
   1427.52575     114.5611     152.5333    1411.90075     132.6030     179.7039
   1427.51049     115.3138     151.7543    1411.88549     133.7036     180.4714
   1427.49523     114.5623     153.1942    1411.87023     132.2103     180.3052
   1427.47998     114.5437     152.4703    1411.85498     134.9639     180.1876
   1427.46472     114.4301     152.0843    1411.83972     133.4405     179.2996
   1427.44946     116.4685     152.7310    1411.82446     134.1647     180.4490
   1427.43420     116.2478     153.6325    1411.80920     135.5247     182.0002
   1427.41894     115.4803     155.5703    1411.79394     136.6922     181.4921
   1427.40368     116.1253     155.2696    1411.77868     137.2860     181.9503
   1427.38842     116.3834     156.7157    1411.76342     135.5824     182.1737
   1427.37316     117.3010     154.7551    1411.74816     135.2597     181.7778
   1427.35791     117.9734     155.2387    1411.73291     137.4544     182.0782
   1427.34265     118.5270     158.0698    1411.71765     135.4060     183.3084
   1427.32739     117.7627     158.3111    1411.70239     136.2246     183.8374
   1427.31213     118.1123     156.7901    1411.68713     136.2700     183.4580
   1427.29687     119.0651     159.3710    1411.67187     137.3730     183.0027
   1427.28161     117.9078     157.8478    1411.65661     137.6918     184.0565
   1427.26635     119.7783     159.8534    1411.64135     138.2051     184.0725
   1427.25109     118.8601     158.4668    1411.62609     137.2566     184.5402
   1427.23583     119.3469     160.0536    1411.61083     135.7563     184.6513
   1427.22058     120.9724     160.0404    1411.59558     137.3112     184.3243
   1427.20532     121.4053     159.9695    1411.58032     138.0161     184.1272
   1427.19006     121.4101     161.1692    1411.56506     138.3825     183.0708
   1427.17480     120.9603     162.3788    1411.54980     138.3678     183.8949
   1427.15954     121.8535     161.0942    1411.53454     139.7633     182.3703
   1427.14428     121.9372     162.6277    1411.51928     138.1094     183.7583
   1427.12902     122.5264     161.8567    1411.50402     139.0259     185.0619
   1427.11376     123.6038     163.8468    1411.48876     139.3952     182.9547
   1427.09851     121.5081     163.5609    1411.47351     137.8198     186.1090
   1427.08325     122.0072     164.5378    1411.45825     139.2082     184.9650
   1427.06799     123.5632     163.2571    1411.44299     140.1852     185.2158
   1427.05273     123.5255     164.1065    1411.42773     139.2326     184.3503
   1427.03747     123.4163     164.8335    1411.41247     138.9847     184.5227
   1427.02221     122.4269     163.4529    1411.39721     140.6604     186.8130
   1427.00695     125.1584     165.5660    1411.38195     139.0403     185.7405
   1426.99169     124.8682     166.0896    1411.36669     139.2719     184.0180
   1426.97644     125.6327     165.1520    1411.35144     140.4277     185.5955
   1426.96118     125.2677     165.3922    1411.33618     138.6046     184.9488
   1426.94592     124.1737     167.0001    1411.32092     138.4312     185.2487
   1426.93066     124.4445     166.3164    1411.30566     139.5798     183.9583
   1426.91540     124.8175     165.7570    1411.29040     139.9589     185.9181
   1426.90014     126.5116     166.4545    1411.27514     139.0553     183.6265
   1426.88488     125.1142     166.6602    1411.25988     139.7003     184.8231
   1426.86962     125.9271     168.0891    1411.24462     140.7904     183.8571
   1426.85437     126.9436     167.2671    1411.22937     140.0802     183.2918
   1426.83911     126.9210     167.2946    1411.21411     141.3165     183.3001
   1426.82385     127.3811     168.4115    1411.19885     140.5225     182.3828
   1426.80859     127.7499     167.1382    1411.18359     140.3646     182.7921
   1426.79333     127.4560     167.4598    1411.16833     140.1938     184.0605
   1426.77807     127.1168     168.2858    1411.15307     141.8058     183.3301
   1426.76281     127.9198     169.3865    1411.13781     141.3671     182.5641
   1426.74755     129.1645     165.8580    1411.12255     139.2079     183.8595
   1426.73229     127.5032     167.1893    1411.10729     139.6576     181.8759
   1426.71704     128.1744     169.0926    1411.09204     140.2636     181.2666
   1426.70178     127.5189     166.8857    1411.07678     139.5810     181.4217
   1426.68652     128.9207     170.2759    1411.06152     141.4750     183.4285
   1426.67126     129.6867     169.0626    1411.04626     140.6263     180.5680
   1426.65600     130.3430     167.6439    1411.03100     141.9709     180.7913
   1426.64074     128.8877     169.9327    1411.01574     140.5280     180.9453
   1426.62548     129.7756     170.5474    1411.00048     140.3467     182.1676
   1426.61022     130.0936     169.5498    1410.98522     139.6608     182.7600
   1426.59497     130.8592     169.7852    1410.96997     140.8936     181.7923
   1426.57971     130.5724     170.2509    1410.95471     141.4675     181.0258
   1426.56445     130.4903     169.8630    1410.93945     140.8519     179.8814
   1426.54919     130.3986     168.2740    1410.92419     140.0489     180.4566
   1426.53393     130.4939     168.5797    1410.90893     139.1564     180.5622
   1426.51867     130.8535     171.8673    1410.89367     140.0303     179.4051
   1426.50341     130.2842     168.0215    1410.87841     140.1978     178.8699
   1426.48815     131.7755     168.6615    1410.86315     141.4570     179.3083
   1426.47290     132.7764     169.4875    1410.84790     140.4186     179.2719
   1426.45764     132.5281     169.6047    1410.83264     141.6212     180.5830
   1426.44238     131.1759     168.2201    1410.81738     140.9576     180.2028
   1426.42712     132.6126     169.3282    1410.80212     140.5401     176.7911
   1426.41186     133.1324     168.8927    1410.78686     139.8336     177.2566
   1426.39660     132.0747     168.6411    1410.77160     140.8127     178.8533
   1426.38134     133.2096     169.3726    1410.75634     139.9007     177.6555
   1426.36608     133.1052     170.6030    1410.74108     140.6993     177.3782
   1426.35083     134.0391     169.0213    1410.72583     139.6323     176.7067
   1426.33557     133.7754     168.3832    1410.71057     139.1705     174.9531
   1426.32031     133.3637     168.1850    1410.69531     140.3974     176.7058
   1426.30505     134.7189     168.5861    1410.68005     139.6909     176.8250
   1426.28979     133.5468     169.6897    1410.66479     139.2342     175.6699
   1426.27453     134.5298     168.0183    1410.64953     140.9105     176.4123
   1426.25927     135.3041     167.9146    1410.63427     140.8581     175.4731
   1426.24401     133.5985     167.8669    1410.61901     139.7730     175.1540
   1426.22875     134.6852     168.3275    1410.60375     139.3321     173.6070
   1426.21350     135.8575     169.5654    1410.58850     141.4146     175.0945
   1426.19824     134.1185     169.8056    1410.57324     139.0559     173.8182
   1426.18298     135.6735     167.8581    1410.55798     140.9636     172.5086
   1426.16772     135.3983     169.0012    1410.54272     139.9744     174.2656
   1426.15246     135.8509     167.7056    1410.52746     139.8478     173.9959
   1426.13720     136.5872     167.9071    1410.51220     141.2935     171.5032
   1426.12194     135.9908     167.7761    1410.49694     140.3518     171.7305
   1426.10668     136.9466     166.6173    1410.48168     139.6111     173.2926
   1426.09143     136.7602     165.1977    1410.46643     140.5226     170.3776
   1426.07617     135.9047     168.0701    1410.45117     138.1971     173.0747
   1426.06091     135.8310     167.1983    1410.43591     140.0135     171.5154
   1426.04565     137.3194     167.6164    1410.42065     140.2366     170.2192
   1426.03039     136.7896     166.5827    1410.40539     139.2162     169.1651
   1426.01513     136.7582     166.8065    1410.39013     139.8918     168.9896
   1425.99987     137.9183     167.5491    1410.37487     138.8182     171.6887
   1425.98461     137.3194     168.0200    1410.35961     141.0808     168.8686
   1425.96936     139.0342     164.8354    1410.34436     140.4289     169.4802
   1425.95410     138.5935     166.6053    1410.32910     140.2807     168.7708
   1425.93884     138.5931     163.4967    1410.31384     138.8777     168.3986
   1425.92358     138.1156     166.2291    1410.29858     138.1684     168.7521
   1425.90832     138.7343     165.5754    1410.28332     138.2884     168.3730
   1425.89306     139.5630     165.6364    1410.26806     139.4591     168.7589
   1425.87780     138.7849     164.9134    1410.25280     140.1275     165.7403
   1425.86254     139.0416     165.0746    1410.23754     139.6702     167.6214
   1425.84729     139.7072     165.3563    1410.22229     139.7028     167.1084
   1425.83203     139.8056     164.3326    1410.20703     139.9543     167.4187
   1425.81677     139.9727     164.5165    1410.19177     139.0373     165.5672
   1425.80151     140.0913     165.6658    1410.17651     139.2710     166.0051
   1425.78625     139.2886     165.9740    1410.16125     139.2760     165.7085
   1425.77099     141.7852     165.8320    1410.14599     137.7134     165.0577
   1425.75573     139.4312     164.1991    1410.13073     139.0156     164.1253
   1425.74047     141.3651     164.0857    1410.11547     138.5560     163.7286
   1425.72521     141.7883     163.7442    1410.10021     139.4342     163.3276
   1425.70996     141.9827     164.5236    1410.08496     137.6635     165.0635
   1425.69470     142.6485     164.1479    1410.06970     137.6689     163.8494
   1425.67944     142.1001     162.4117    1410.05444     139.4175     163.0977
   1425.66418     142.5400     162.9629    1410.03918     139.2558     162.8694
   1425.64892     142.6984     164.3600    1410.02392     139.4992     164.1895
   1425.63366     142.5934     161.9319    1410.00866     140.4650     161.9601
   1425.61840     142.9722     163.4382    1409.99340     138.4060     160.1736
   1425.60314     143.7996     161.1648    1409.97814     138.3466     161.6662
   1425.58789     144.5435     162.4355    1409.96289     138.1210     162.0336
   1425.57263     141.6579     163.0712    1409.94763     138.9683     159.3415
   1425.55737     142.7324     163.2901    1409.93237     138.0850     160.1281
   1425.54211     143.7471     160.9038    1409.91711     138.7646     158.8028
   1425.52685     144.4232     161.1648    1409.90185     138.0246     158.5682
   1425.51159     143.6679     162.1577    1409.88659     138.9624     159.8009
   1425.49633     144.5405     162.9417    1409.87133     139.4860     156.9130
   1425.48107     144.1736     161.6298    1409.85607     138.9536     158.8191
   1425.46582     145.6751     159.5715    1409.84082     137.6289     158.5361
   1425.45056     144.5188     160.0870    1409.82556     137.9780     156.5177
   1425.43530     145.3145     160.8436    1409.81030     137.7642     158.2876
   1425.42004     146.5517     161.2553    1409.79504     139.3154     157.3044
   1425.40478     145.9602     160.0812    1409.77978     139.8450     155.8116
   1425.38952     146.2278     160.2048    1409.76452     138.4893     155.8315
   1425.37426     146.8127     160.4747    1409.74926     139.6623     155.3686
   1425.35900     146.0030     160.9547    1409.73400     138.6802     156.3701
   1425.34375     146.6813     158.4551    1409.71875     137.8883     155.0576
   1425.32849     147.5809     160.3764    1409.70349     136.9502     154.6135
   1425.31323     146.8303     159.2689    1409.68823     138.3027     152.7127
   1425.29797     147.7319     159.7560    1409.67297     139.2060     154.7062
   1425.28271     148.1142     160.1439    1409.65771     138.6281     154.8258
   1425.26745     147.0071     159.6221    1409.64245     139.9373     154.4190
   1425.25219     147.4387     157.5064    1409.62719     139.3596     153.2393
   1425.23693     147.8695     157.9233    1409.61193     138.7475     152.7025
   1425.22167     146.7592     160.4372    1409.59667     138.7503     152.5107
   1425.20642     147.1789     157.3096    1409.58142     137.3538     151.1208
   1425.19116     148.3435     157.0981    1409.56616     138.6017     153.4470
   1425.17590     148.4894     156.8225    1409.55090     138.1110     151.7077
   1425.16064     149.4249     156.5933    1409.53564     138.5961     150.5443
   1425.14538     149.4921     155.7837    1409.52038     138.4921     151.0966
   1425.13012     150.6402     156.8370    1409.50512     140.3510     150.0573
   1425.11486     149.7755     156.9695    1409.48986     138.3445     148.8583
   1425.09960     149.9808     156.6555    1409.47460     139.2906     149.6339
   1425.08435     150.7467     157.3457    1409.45935     138.7405     150.1327
   1425.06909     150.5410     155.4314    1409.44409     139.3463     148.8452
   1425.05383     151.4347     156.7708    1409.42883     140.5506     149.0594
   1425.03857     150.5846     156.0579    1409.41357     139.6191     148.6592
   1425.02331     151.0508     154.0511    1409.39831     140.3937     149.1953
   1425.00805     151.5431     155.0773    1409.38305     138.5901     148.2759
   1424.99279     152.4443     155.9883    1409.36779     137.9728     148.2068
   1424.97753     153.1302     155.9729    1409.35253     140.5287     145.8423
   1424.96228     152.0099     154.2796    1409.33728     138.4215     146.0722
   1424.94702     151.7094     154.5054    1409.32202     139.4652     145.6105
   1424.93176     151.7853     155.0279    1409.30676     138.4713     144.9363
   1424.91650     152.6851     151.6899    1409.29150     139.9695     146.0073
   1424.90124     154.1259     153.1326    1409.27624     139.6918     144.7352
   1424.88598     153.4211     152.8056    1409.26098     139.7944     145.7020
   1424.87072     154.2893     152.8209    1409.24572     139.2302     144.7896
   1424.85546     153.7569     153.5216    1409.23046     140.0713     145.1223
   1424.84021     155.1312     152.7685    1409.21521     139.8610     145.3724
   1424.82495     155.8235     151.9044    1409.19995     140.7004     143.2752
   1424.80969     153.9530     153.1677    1409.18469     139.7494     143.6051
   1424.79443     155.4715     151.6366    1409.16943     140.6101     142.9705
   1424.77917     155.8163     152.1675    1409.15417     139.8969     143.2240
   1424.76391     155.9302     151.4812    1409.13891     140.0699     143.3937
   1424.74865     156.1607     153.0034    1409.12365     140.7898     143.2560
   1424.73339     156.7399     152.7925    1409.10839     140.0688     143.1045
   1424.71813     157.2031     150.7833    1409.09313     141.5030     142.7896
   1424.70288     156.5337     152.3373    1409.07788     140.0806     141.2005
   1424.68762     157.2593     150.9184    1409.06262     140.8001     141.9603
   1424.67236     157.8078     150.3489    1409.04736     141.3364     141.3007
   1424.65710     158.7665     151.8488    1409.03210     140.4600     140.3325
   1424.64184     157.4575     150.5054    1409.01684     139.9077     141.3124
   1424.62658     157.3859     149.8723    1409.00158     140.0391     140.3763
   1424.61132     157.4628     150.5914    1408.98632     140.4662     140.2618
   1424.59606     159.0026     150.6361    1408.97106     142.1503     140.7858
   1424.58081     159.1779     150.3184    1408.95581     141.1567     140.2656
   1424.56555     160.4685     149.4550    1408.94055     142.1194     139.9352
   1424.55029     158.7446     148.6620    1408.92529     142.3728     139.4329
   1424.53503     159.1870     148.5167    1408.91003     141.2044     138.8532
   1424.51977     159.5181     149.5872    1408.89477     142.7153     139.1209
   1424.50451     159.0484     148.4629    1408.87951     142.1485     138.2371
   1424.48925     159.8891     148.1516    1408.86425     141.5307     138.0997
   1424.47399     159.8293     148.2854    1408.84899     142.5458     137.9825
   1424.45874     160.9937     148.2337    1408.83374     143.3964     138.6319
   1424.44348     159.6482     147.6928    1408.81848     140.5530     138.0407
   1424.42822     159.7135     147.1217    1408.80322     142.5011     137.9206
   1424.41296     160.5219     147.1498    1408.78796     142.2120     137.6086
   1424.39770     161.4534     147.8383    1408.77270     142.3150     136.6919
   1424.38244     161.2965     147.3726    1408.75744     143.2866     136.2255
   1424.36718     161.3898     144.9222    1408.74218     143.3150     135.9445
   1424.35192     162.2406     145.8310    1408.72692     142.5639     135.7430
   1424.33667     162.5197     147.1140    1408.71167     144.1262     136.1132
   1424.32141     162.8031     147.7314    1408.69641     144.5222     134.8128
   1424.30615     162.6814     146.2583    1408.68115     143.7058     135.1793
   1424.29089     162.6119     146.2361    1408.66589     143.7192     135.3123
   1424.27563     163.8966     145.4475    1408.65063     142.0957     134.5523
   1424.26037     163.1600     145.7332    1408.63537     143.9530     134.0916
   1424.24511     163.0314     146.0290    1408.62011     145.5143     134.5276
   1424.22985     164.9019     145.1668    1408.60485     145.5363     134.7587
   1424.21459     163.8883     144.2846    1408.58959     144.7929     135.0007
   1424.19934     163.0982     144.5431    1408.57434     144.5197     132.8711
   1424.18408     163.0531     145.0671    1408.55908     145.8282     133.9082
   1424.16882     165.2850     143.6762    1408.54382     145.6115     134.0599
   1424.15356     164.6762     143.0314    1408.52856     144.9764     132.4514
   1424.13830     165.3937     143.1877    1408.51330     146.7080     131.8322
   1424.12304     166.1929     143.7779    1408.49804     145.8765     132.3559
   1424.10778     164.8975     143.5416    1408.48278     147.4543     132.4802
   1424.09252     164.6709     141.4284    1408.46752     145.6317     130.8236
   1424.07727     166.8367     142.4899    1408.45227     144.9405     132.1840
   1424.06201     165.7857     142.4358    1408.43701     145.3751     131.2976
   1424.04675     165.9180     143.1560    1408.42175     146.2321     130.8428
   1424.03149     167.2452     142.1711    1408.40649     145.8715     130.7156
   1424.01623     166.5166     140.3508    1408.39123     145.8655     131.6112
   1424.00097     165.8379     142.0501    1408.37597     145.1477     130.3209
   1423.98571     166.9096     141.9313    1408.36071     146.6703     131.0122
   1423.97045     167.4932     143.3023    1408.34545     148.0235     131.0047
   1423.95520     168.4930     142.8649    1408.33020     147.0607     130.4141
   1423.93994     167.6403     141.1378    1408.31494     147.2098     130.7719
   1423.92468     168.5773     141.8278    1408.29968     148.5736     129.1217
   1423.90942     167.1612     141.4402    1408.28442     147.3508     129.8275
   1423.89416     168.8335     141.8277    1408.26916     148.9575     128.6860
   1423.87890     168.3064     141.2723    1408.25390     147.5680     129.3529
   1423.86364     167.3861     140.1883    1408.23864     148.4409     128.3971
   1423.84838     168.5549     139.6953    1408.22338     147.5993     128.9539
   1423.83312     168.8163     139.9078    1408.20812     148.2233     127.8056
   1423.81787     169.6984     139.5354    1408.19287     149.5445     129.1359
   1423.80261     169.6112     140.0122    1408.17761     148.1468     129.1980
   1423.78735     169.8438     139.4804    1408.16235     149.1227     128.8687
   1423.77209     170.4117     139.2151    1408.14709     150.5607     128.0743
   1423.75683     169.3681     139.1699    1408.13183     150.2095     128.0767
   1423.74157     168.8221     138.1809    1408.11657     150.3296     128.7535
   1423.72631     168.9516     139.0114    1408.10131     150.2205     128.1368
   1423.71105     170.5096     138.1871    1408.08605     149.8446     126.8553
   1423.69580     171.2587     139.5078    1408.07080     149.7283     127.2145
   1423.68054     170.0794     137.9197    1408.05554     149.4850     127.5120
   1423.66528     171.0994     139.1126    1408.04028     149.7745     127.2977
   1423.65002     170.0890     137.1098    1408.02502     150.7938     127.0230
   1423.63476     170.3422     137.7627    1408.00976     150.2025     127.9710
   1423.61950     170.7184     137.4529    1407.99450     151.7652     126.2493
   1423.60424     172.3544     137.3081    1407.97924     150.4820     126.2793
   1423.58898     171.1364     138.0250    1407.96398     152.1387     126.0434
   1423.57373     173.1609     136.9305    1407.94873     152.7849     126.3846
   1423.55847     171.5602     136.2863    1407.93347     151.7396     126.4332
   1423.54321     170.6415     135.7441    1407.91821     152.5423     125.9088
   1423.52795     170.6756     136.4987    1407.90295     151.9390     125.4830
   1423.51269     173.5110     136.3347    1407.88769     151.9632     124.6957
   1423.49743     171.5498     136.0472    1407.87243     151.4626     125.5997
   1423.48217     172.4695     135.5048    1407.85717     151.4235     124.7674
   1423.46691     172.9766     135.6850    1407.84191     153.6398     125.0419
   1423.45166     172.0557     135.3104    1407.82666     153.1621     124.7460
   1423.43640     173.2085     135.3050    1407.81140     151.6740     125.3573
   1423.42114     173.0545     134.1749    1407.79614     153.7380     124.6019
   1423.40588     172.7217     136.2389    1407.78088     152.7478     124.5086
   1423.39062     172.9105     134.5750    1407.76562     153.6101     125.2773
   1423.37536     174.5397     135.1061    1407.75036     152.6408     124.7147
   1423.36010     173.9318     134.3676    1407.73510     153.1803     123.7228
   1423.34484     171.9115     134.3751    1407.71984     154.8399     123.7050
   1423.32958     172.9836     133.4775    1407.70458     154.7605     124.0724
   1423.31433     173.4636     133.7324    1407.68933     154.7447     122.7413
   1423.29907     174.1548     132.7321    1407.67407     154.8363     124.7259
   1423.28381     172.5094     133.8113    1407.65881     155.0627     123.6091
   1423.26855     172.6888     133.8559    1407.64355     154.8345     123.7178
   1423.25329     175.3562     132.7788    1407.62829     155.8220     122.6596
   1423.23803     173.6963     132.2073    1407.61303     155.5640     122.2604
   1423.22277     172.8622     132.1420    1407.59777     156.0809     123.0587
   1423.20751     174.1676     131.8016    1407.58251     155.8114     122.9972
   1423.19226     173.5559     133.5708    1407.56726     155.5171     124.3228
   1423.17700     174.1960     132.2396    1407.55200     156.5034     122.6198
   1423.16174     175.0747     133.1360    1407.53674     155.2432     121.5894
   1423.14648     173.4826     132.3776    1407.52148     156.2284     122.9377
   1423.13122     175.4109     130.1897    1407.50622     156.7778     121.9687
   1423.11596     175.6961     131.8617    1407.49096     155.4870     123.0177
   1423.10070     174.4779     131.8477    1407.47570     157.5226     123.0084
   1423.08544     174.3154     131.6677    1407.46044     157.5842     123.0433
   1423.07019     175.2022     130.5188    1407.44519     158.1510     122.4606
   1423.05493     176.2371     130.6897    1407.42993     155.6558     122.8862
   1423.03967     174.6919     130.2981    1407.41467     157.8639     122.6169
   1423.02441     175.3965     130.6375    1407.39941     156.5511     122.9372
   1423.00915     175.3525     130.5656    1407.38415     158.4375     121.9830
   1422.99389     174.7821     131.1085    1407.36889     157.3520     122.8228
   1422.97863     177.5656     131.0055    1407.35363     157.7834     121.9192
   1422.96337     175.0261     128.7598    1407.33837     157.9285     122.2741
   1422.94812     176.0531     130.3791    1407.32312     158.0962     121.2669
   1422.93286     174.6147     129.7993    1407.30786     159.4633     122.1124
   1422.91760     175.9290     129.9452    1407.29260     158.3808     121.7759
   1422.90234     174.1271     128.6500    1407.27734     160.3640     122.4349
   1422.88708     175.0241     128.8977    1407.26208     159.1371     121.8581
   1422.87182     176.1512     128.8674    1407.24682     158.5798     121.6209
   1422.85656     175.0049     129.1256    1407.23156     159.8301     120.4858
   1422.84130     175.8894     129.0506    1407.21630     159.2848     121.3491
   1422.82604     175.6461     128.4990    1407.20104     159.9153     121.3573
   1422.81079     179.3018     127.7845    1407.18579     159.9050     121.1761
   1422.79553     175.2851     128.3852    1407.17053     160.1025     121.9595
   1422.78027     176.3730     128.5425    1407.15527     160.3037     120.7914
   1422.76501     176.5474     127.9981    1407.14001     160.6102     121.1875
   1422.74975     177.5298     127.8363    1407.12475     160.0840     121.2366
   1422.73449     177.2109     127.0143    1407.10949     163.6333     121.5356
   1422.71923     177.9012     127.8976    1407.09423     162.2073     121.6876
   1422.70397     175.4538     127.3964    1407.07897     162.6397     120.5996
   1422.68872     175.1656     127.8313    1407.06372     162.7733     121.1707
   1422.67346     178.1977     126.4459    1407.04846     159.9403     121.7241
   1422.65820     175.6588     126.4626    1407.03320     161.5604     120.7775
   1422.64294     176.7308     126.1318    1407.01794     162.3772     120.8730
   1422.62768     175.2109     126.7214    1407.00268     163.6218     120.6779
   1422.61242     177.2430     125.6801    1406.98742     162.7805     120.7372
   1422.59716     176.6071     126.5090    1406.97216     161.4308     121.2433
   1422.58190     177.2834     124.8196    1406.95690     162.3737     120.5170
   1422.56665     176.5406     125.6465    1406.94165     162.2006     120.5540
   1422.55139     176.2461     125.7434    1406.92639     160.0595     121.1489
   1422.53613     176.8580     125.6814    1406.91113     163.8015     120.9135
   1422.52087     175.3837     126.3810    1406.89587     162.5729     119.9056
   1422.50561     176.6146     125.7313    1406.88061     163.5870     119.8365
   1422.49035     175.8531     125.0453    1406.86535     164.7376     120.2279
   1422.47509     177.1562     125.1194    1406.85009     164.1498     120.2117
   1422.45983     175.7702     125.3655    1406.83483     162.5582     121.1200
   1422.44458     176.3875     124.1059    1406.81958     163.5560     119.7429
   1422.42932     176.6345     124.7604    1406.80432     164.1297     120.5074
   1422.41406     175.7653     125.1391    1406.78906     164.0313     120.5677
   1422.39880     177.7968     123.9658    1406.77380     164.1898     120.9481
   1422.38354     177.0655     123.9875    1406.75854     165.1380     121.2032
   1422.36828     177.3323     123.9151    1406.74328     164.6219     120.8408
   1422.35302     176.9245     124.2213    1406.72802     164.0179     120.9378
   1422.33776     177.6433     124.6336    1406.71276     165.9644     121.4948
   1422.32250     177.8754     124.2719    1406.69750     163.2295     121.2612
   1422.30725     176.4737     124.6834    1406.68225     165.1238     120.3333
   1422.29199     177.1299     123.8836    1406.66699     163.9994     120.6612
   1422.27673     177.4976     124.1791    1406.65173     164.4684     121.2607
   1422.26147     177.7219     123.6586    1406.63647     164.6821     121.3620
   1422.24621     177.6871     122.6072    1406.62121     164.5120     121.2222
   1422.23095     177.8056     122.8701    1406.60595     164.5507     121.0540
   1422.21569     179.0258     123.5443    1406.59069     165.3364     120.4140
   1422.20043     177.8999     124.1806    1406.57543     166.3257     120.8840
   1422.18518     177.2166     122.3212    1406.56018     166.6074     120.4272
   1422.16992     177.6093     122.0800    1406.54492     165.6606     121.2110
   1422.15466     178.3210     122.4441    1406.52966     166.6328     121.0672
   1422.13940     177.5671     122.5458    1406.51440     165.5843     122.3269
   1422.12414     178.5986     121.5473    1406.49914     166.0707     120.8735
   1422.10888     177.4889     121.4861    1406.48388     164.8044     122.1618
   1422.09362     177.4684     122.8669    1406.46862     166.7424     121.8719
   1422.07836     178.4687     122.5136    1406.45336     165.4115     121.3230
   1422.06311     179.4318     121.2160    1406.43811     166.0367     120.5217
   1422.04785     179.7113     122.2806    1406.42285     164.6499     122.5656
   1422.03259     179.6929     122.2840    1406.40759     166.5994     122.2141
   1422.01733     179.2237     121.8241    1406.39233     166.0260     121.8079
   1422.00207     179.3091     123.4728    1406.37707     166.7533     121.5449
   1421.98681     178.5143     121.6525    1406.36181     165.2814     122.0867
   1421.97155     179.7683     121.3874    1406.34655     166.3192     122.3971
   1421.95629     179.1396     122.1227    1406.33129     167.2363     121.6613
   1421.94104     179.2994     121.9505    1406.31604     165.4990     122.2364
   1421.92578     179.1536     121.2719    1406.30078     166.4825     122.3937
   1421.91052     178.4931     120.4316    1406.28552     168.0931     121.8816
   1421.89526     178.4547     121.0718    1406.27026     166.7234     124.7130
   1421.88000     178.5161     121.5684    1406.25500     167.3942     124.8811
   1421.86474     178.5776     122.0651    1406.23974     168.0651     125.0491
   1421.84948     178.8681     120.5442    1406.22448     166.7284     122.5167
   1421.83422     179.4807     120.8182    1406.20922     165.8231     123.0295
   1421.81896     179.6533     120.8999    1406.19396     165.9491     122.3647
   1421.80371     179.7660     120.9717    1406.17871     166.2967     123.1747
   1421.78845     178.9354     120.8924    1406.16345     168.5690     121.6618
   1421.77319     178.3393     121.1150    1406.14819     166.6168     123.3176
   1421.75793     180.9037     120.6202    1406.13293     169.0400     124.1302
   1421.74267     178.1270     120.9748    1406.11767     168.0266     123.3243
   1421.72741     179.9344     120.0816    1406.10241     168.6466     123.5348
   1421.71215     180.2189     120.0851    1406.08715     167.2965     123.9732
   1421.69689     181.4414     120.4851    1406.07189     168.1496     123.2113
   1421.68164     179.5137     120.0165    1406.05664     168.2460     124.1370
   1421.66638     179.2518     120.2384    1406.04138     169.0427     123.1831
   1421.65112     179.3763     120.8407    1406.02612     168.4592     124.1233
   1421.63586     179.7719     121.2143    1406.01086     169.0341     124.9139
   1421.62060     181.2327     120.2986    1405.99560     168.8767     124.2932
   1421.60534     181.5778     120.4340    1405.98034     168.2364     124.9024
   1421.59008     180.7571     119.5222    1405.96508     167.3128     124.6869
   1421.57482     180.1874     120.4289    1405.94982     169.0085     125.3877
   1421.55957     180.8533     119.8566    1405.93457     167.3909     125.4951
   1421.54431     180.1785     120.0507    1405.91931     168.5305     125.5548
   1421.52905     180.1123     119.8268    1405.90405     168.3559     125.2206
   1421.51379     181.4214     120.8116    1405.88879     169.7601     126.3796
   1421.49853     178.7989     119.6583    1405.87353     167.4085     125.5566
   1421.48327     181.2760     119.2326    1405.85827     169.4976     126.8052
   1421.46801     181.0662     120.8818    1405.84301     168.3762     126.1369
   1421.45275     179.7518     120.2352    1405.82775     168.5301     125.9965
   1421.43750     181.0621     119.6578    1405.81250     167.8835     126.3658
   1421.42224     180.2502     119.7257    1405.79724     168.2355     127.2530
   1421.40698     182.6283     120.4324    1405.78198     167.8733     126.0149
   1421.39172     181.7848     121.0210    1405.76672     168.9498     125.9675
   1421.37646     181.3971     120.4949    1405.75146     170.0894     127.1763
   1421.36120     181.0147     120.6835    1405.73620     169.0522     127.2031
   1421.34594     181.8496     121.1002    1405.72094     168.9578     127.0305
   1421.33068     183.3258     121.5151    1405.70568     168.3038     128.2485
   1421.31542     182.9394     120.7333    1405.69042     169.6344     127.7785
   1421.30017     181.8692     120.3174    1405.67517     169.0006     128.5203
   1421.28491     183.5305     120.9976    1405.65991     167.3694     129.0162
   1421.26965     183.0503     122.2501    1405.64465     167.3902     127.7413
   1421.25439     183.9750     120.8883    1405.62939     169.1872     127.6848
   1421.23913     185.5561     120.7790    1405.61413     170.5114     129.2967
   1421.22387     182.7864     121.1433    1405.59887     167.8312     128.5114
   1421.20861     183.7548     122.2550    1405.58361     167.0434     129.2479
   1421.19335     185.9468     121.0201    1405.56835     167.7115     128.9383
   1421.17810     184.0232     120.6041    1405.55310     169.8194     130.5718
   1421.16284     183.0101     121.4765    1405.53784     169.2039     130.3645
   1421.14758     184.0817     120.8611    1405.52258     168.9591     128.6983
   1421.13232     185.6815     122.0048    1405.50732     168.9475     130.7951
   1421.11706     181.8775     121.5658    1405.49206     170.7573     131.3196
   1421.10180     184.0025     122.5339    1405.47680     167.1634     129.7415
   1421.08654     185.8174     121.7818    1405.46154     168.3543     131.0784
   1421.07128     185.6628     122.7954    1405.44628     169.0042     131.3890
   1421.05603     186.9963     123.7330    1405.43103     168.7802     131.2181
   1421.04077     186.6124     122.6383    1405.41577     169.8182     130.4248
   1421.02551     186.0040     123.6317    1405.40051     167.8657     130.6822
   1421.01025     188.3599     122.9229    1405.38525     170.1360     132.7502
   1420.99499     187.8423     123.0079    1405.36999     167.7435     130.5761
   1420.97973     188.2515     123.6474    1405.35473     168.4074     133.6740
   1420.96447     188.8713     123.1744    1405.33947     168.4658     132.4583
   1420.94921     187.8950     122.5828    1405.32421     167.7420     132.4016
   1420.93396     186.4969     123.0070    1405.30896     168.9491     132.1128
   1420.91870     188.4476     121.6769    1405.29370     168.0534     132.9887
   1420.90344     186.0600     122.1954    1405.27844     167.4930     133.0527
   1420.88818     186.5594     123.3416    1405.26318     166.4809     133.5743
   1420.87292     187.6173     123.2009    1405.24792     167.4251     134.0832
   1420.85766     187.3740     124.2199    1405.23266     168.7684     134.3517
   1420.84240     186.9270     123.6890    1405.21740     167.9645     135.5084
   1420.82714     187.0777     124.6067    1405.20214     167.5280     134.2667
   1420.81188     188.5992     124.7550    1405.18688     168.7014     134.4942
   1420.79663     192.5669     125.5827    1405.17163     168.9446     135.3792
   1420.78137     190.1408     125.2116    1405.15637     165.8263     135.5661
   1420.76611     187.0639     123.3263    1405.14111     167.2200     136.2122
   1420.75085     173.9578     115.2145    1405.12585     167.3136     135.9544
   1420.73559     163.4561     107.7456    1405.11059     166.0199     136.5320
   1420.72033     166.7322     110.5125    1405.09533     166.5971     137.1902
   1420.70507     182.6362     121.9814    1405.08007     167.0055     136.5716
   1420.68981     190.8920     125.2821    1405.06481     167.1671     136.8097
   1420.67456     188.6270     126.2446    1405.04956     168.0784     139.0151
   1420.65930     192.7424     128.6870    1405.03430     168.0871     137.0872
   1420.64404     192.8579     127.4891    1405.01904     167.8105     138.0479
   1420.62878     187.3247     124.2570    1405.00378     166.3018     138.5764
   1420.61352     195.2516     129.3022    1404.98852     167.0987     137.3502
   1420.59826     213.2598     140.1533    1404.97326     168.8082     140.3234
   1420.58300     229.4628     152.2710    1404.95800     167.9744     139.1705
   1420.56774     247.9773     161.6809    1404.94274     167.2546     139.8745
   1420.55249     252.5508     167.3010    1404.92749     166.1700     139.5901
   1420.53723     248.0504     162.9703    1404.91223     165.8863     139.6546
   1420.52197     221.3733     145.7070    1404.89697     166.0080     141.8058
   1420.50671     192.2403     128.3685    1404.88171     165.7148     141.1597
   1420.49145     199.0740     131.8294    1404.86645     166.0662     140.0553
   1420.47619     197.7361     131.6528    1404.85119     165.3571     139.7118
   1420.46093     169.9224     113.7317    1404.83593     167.0966     142.0599
   1420.44567     179.8901     119.4344    1404.82067     166.7795     141.4223
   1420.43042     230.2734     151.1736    1404.80542     164.5943     142.7348
   1420.41516     232.1443     152.9828    1404.79016     165.3853     142.8931
   1420.39990     231.4785     151.9739    1404.77490     164.4060     141.6080
   1420.38464     218.3030     146.3300    1404.75964     166.5734     144.1124
   1420.36938     219.9487     146.5865    1404.74438     163.2561     141.6710
   1420.35412     216.1360     145.5202    1404.72912     165.4022     142.5231
   1420.33886     213.5781     141.2174    1404.71386     164.5706     142.3754
   1420.32360     202.0184     136.0525    1404.69860     164.6992     142.3193
   1420.30834     196.9319     133.0425    1404.68334     165.0534     144.8062
   1420.29309     193.2447     130.6956    1404.66809     164.2466     144.3436
   1420.27783     191.8493     129.3502    1404.65283     163.7760     146.1050
   1420.26257     191.4336     128.6323    1404.63757     164.6206     144.7018
   1420.24731     190.5474     127.5804    1404.62231     162.8534     145.6565
   1420.23205     190.1290     127.4100    1404.60705     164.4128     146.7659
   1420.21679     188.7316     128.6688    1404.59179     163.7364     145.8930
   1420.20153     191.2446     128.7396    1404.57653     163.8496     145.9467
   1420.18627     192.3809     129.7423    1404.56127     163.3131     145.7146
   1420.17102     192.2441     130.5831    1404.54602     164.7632     146.7893
   1420.15576     190.9182     128.8915    1404.53076     163.3108     148.4848
   1420.14050     193.3596     129.9987    1404.51550     162.8617     147.1168
   1420.12524     191.5476     129.1336    1404.50024     163.4320     147.1920
   1420.10998     191.1231     131.3914    1404.48498     163.2371     148.8090
   1420.09472     191.8482     128.6588    1404.46972     163.0006     148.1815
   1420.07946     193.0304     130.3858    1404.45446     162.6951     147.8076
   1420.06420     191.7616     130.3220    1404.43920     164.3955     148.9350
   1420.04895     192.6818     130.4912    1404.42395     161.9712     148.6268
   1420.03369     193.1731     130.5844    1404.40869     163.4375     148.8723
   1420.01843     191.6244     130.1061    1404.39343     161.7356     149.0133
   1420.00317     191.3482     131.1575    1404.37817     161.9524     150.8252
   1419.98791     192.0816     131.3872    1404.36291     161.9088     150.6310
   1419.97265     191.8914     131.7314    1404.34765     161.0742     152.0730
   1419.95739     190.8788     132.6236    1404.33239     160.9796     151.4532
   1419.94213     191.7373     131.4794    1404.31713     162.8400     150.5313
   1419.92687     191.8188     132.2062    1404.30187     161.0380     151.8712
   1419.91162     191.9783     132.4062    1404.28662     162.4855     151.2362
   1419.89636     195.9113     134.7091    1404.27136     161.6903     151.8360
   1419.88110     194.9542     134.9972    1404.25610     161.5515     152.3709
   1419.86584     195.6672     135.0368    1404.24084     160.3771     151.7087
   1419.85058     195.3461     136.6307    1404.22558     160.1864     153.4835
   1419.83532     194.7285     134.4375    1404.21032     160.2634     154.2210
   1419.82006     192.9350     134.4369    1404.19506     161.0893     152.8845
   1419.80480     191.7721     134.6867    1404.17980     161.4105     153.2400
   1419.78955     192.8965     133.9356    1404.16455     160.1946     154.5211
   1419.77429     190.3869     134.3844    1404.14929     160.2106     155.1111
   1419.75903     190.9201     132.8939    1404.13403     160.2159     155.7261
   1419.74377     188.9550     133.2912    1404.11877     158.7073     155.9500
   1419.72851     188.7150     131.7098    1404.10351     159.4531     155.4021
   1419.71325     189.1603     131.8746    1404.08825     159.2863     157.2443
   1419.69799     188.1194     132.6963    1404.07299     160.6407     157.2484
   1419.68273     188.8218     133.5764    1404.05773     160.1968     156.5967
   1419.66748     188.4102     133.7119    1404.04248     159.2694     157.8667
   1419.65222     188.3000     131.9910    1404.02722     160.8448     158.2791
   1419.63696     185.7621     131.9302    1404.01196     160.7568     157.3124
   1419.62170     186.8472     133.1910    1403.99670     159.4505     157.6811
   1419.60644     183.5875     130.3227    1403.98144     159.2350     159.4033
   1419.59118     181.7653     129.8605    1403.96618     158.3198     159.8828
   1419.57592     182.1773     130.2571    1403.95092     159.5516     160.7400
   1419.56066     181.7719     130.5820    1403.93566     157.7971     161.6774
   1419.54541     180.3743     130.4381    1403.92041     159.6334     161.3388
   1419.53015     180.8054     130.6064    1403.90515     159.2393     162.1742
   1419.51489     179.8944     129.2417    1403.88989     158.8551     162.1124
   1419.49963     180.5288     130.2357    1403.87463     158.1451     161.4063
   1419.48437     180.0852     130.6756    1403.85937     158.2202     161.4212
   1419.46911     180.3051     129.8770    1403.84411     157.6862     162.1851
   1419.45385     179.2122     130.1579    1403.82885     158.5755     163.6836
   1419.43859     178.4491     130.3122    1403.81359     159.3206     162.7744
   1419.42333     179.0100     129.9401    1403.79833     158.2734     162.4630
   1419.40808     177.5445     130.1642    1403.78308     156.5675     164.5128
   1419.39282     177.7145     131.0466    1403.76782     158.4559     164.6402
   1419.37756     181.5725     131.4677    1403.75256     157.7568     165.7209
   1419.36230     178.3108     129.1896    1403.73730     157.0266     167.1114
   1419.34704     177.9599     131.4712    1403.72204     157.4919     165.7786
   1419.33178     178.2500     131.7175    1403.70678     157.0230     165.9798
   1419.31652     177.5609     131.8664    1403.69152     157.0382     166.6136
   1419.30126     178.8692     130.8580    1403.67626     158.3214     166.9649
   1419.28601     178.8169     131.9553    1403.66101     155.8518     168.0439
   1419.27075     178.0973     132.1919    1403.64575     155.9373     166.6396
   1419.25549     176.8250     132.5104    1403.63049     158.7747     167.8237
   1419.24023     179.2806     132.4958    1403.61523     157.8814     168.8851
   1419.22497     177.4490     132.9663    1403.59997     156.9851     168.9590
   1419.20971     178.7559     132.8557    1403.58471     156.2866     168.7291
   1419.19445     179.2282     133.1057    1403.56945     155.6027     169.8718
   1419.17919     177.0060     134.6722    1403.55419     156.4194     170.9910
   1419.16394     177.2064     133.2927    1403.53894     156.6515     169.7515
   1419.14868     179.5784     133.6761    1403.52368     155.7950     171.9646
   1419.13342     176.0393     134.0068    1403.50842     156.3627     172.3670
   1419.11816     177.1642     135.9523    1403.49316     155.6377     172.0206
   1419.10290     177.4631     133.9959    1403.47790     155.6702     172.3685
   1419.08764     176.9944     134.9809    1403.46264     156.3989     172.8143
   1419.07238     176.9572     133.7005    1403.44738     156.3972     173.7467
   1419.05712     176.4969     134.6228    1403.43212     154.6829     173.7875
   1419.04187     176.2853     135.9298    1403.41687     157.3236     172.4180
   1419.02661     177.3999     135.6409    1403.40161     155.3559     174.9697
   1419.01135     176.5694     135.4962    1403.38635     153.9792     173.4813
   1418.99609     176.7362     135.7707    1403.37109     155.8806     174.7088
   1418.98083     175.7001     136.8212    1403.35583     156.6727     176.0390
   1418.96557     174.3732     136.0488    1403.34057     155.5944     176.4721
   1418.95031     176.2151     136.7545    1403.32531     156.3359     175.7815
   1418.93505     176.2224     136.8068    1403.31005     155.8728     177.6372
   1418.91979     175.2266     136.5684    1403.29479     156.3250     178.3062
   1418.90454     176.0171     135.2717    1403.27954     156.4798     176.4523
   1418.88928     174.6424     136.6373    1403.26428     155.8669     178.2721
   1418.87402     175.5342     137.1331    1403.24902     155.8044     178.8664
   1418.85876     175.8222     138.3184    1403.23376     154.0593     178.6113
   1418.84350     176.2109     137.7730    1403.21850     154.7395     179.7446
   1418.82824     175.9058     138.4409    1403.20324     155.4425     179.5829
   1418.81298     174.4238     140.3467    1403.18798     155.2471     183.0944
   1418.79772     175.0372     137.3810    1403.17272     154.8028     181.3245
   1418.78247     175.8316     139.0288    1403.15747     156.1173     181.1695
   1418.76721     175.8591     139.2047    1403.14221     155.5633     182.2513
   1418.75195     174.3320     140.2145    1403.12695     156.2632     182.4284
   1418.73669     174.5941     139.7911    1403.11169     156.0025     183.4158
   1418.72143     175.7240     140.7467    1403.09643     155.9569     182.0759
   1418.70617     173.4513     139.1790    1403.08117     155.1273     184.0927
   1418.69091     173.8973     139.8084    1403.06591     156.4583     182.9238
   1418.67565     175.1679     139.9191    1403.05065     154.5876     185.2559
   1418.66040     173.6795     140.3240    1403.03540     155.3289     183.5022
   1418.64514     173.5818     142.3186    1403.02014     156.2630     186.9307
   1418.62988     171.7869     140.6385    1403.00488     154.9237     186.2571
   1418.61462     172.6968     140.9827    1402.98962     155.1792     186.0180
   1418.59936     174.8496     141.6791    1402.97436     155.2427     186.6584
   1418.58410     173.5769     141.7052    1402.95910     154.8672     187.5057
   1418.56884     171.2115     142.9548    1402.94384     154.9625     190.1670
   1418.55358     173.3072     143.4075    1402.92858     155.4987     188.9632
   1418.53833     172.6198     141.9105    1402.91333     157.1440     189.6024
   1418.52307     173.4125     143.5034    1402.89807     153.6096     189.0888
   1418.50781     175.1641     143.0257    1402.88281     156.3426     189.3716
   1418.49255     175.4967     142.7258    1402.86755     155.4185     190.9793
   1418.47729     173.5835     144.2291    1402.85229     155.0190     192.3377
   1418.46203     172.1200     144.8883    1402.83703     156.2418     191.2763
   1418.44677     172.8481     145.5919    1402.82177     155.4652     191.4168
   1418.43151     172.2742     145.2720    1402.80651     155.9347     193.4861
   1418.41625     172.6650     145.2774    1402.79125     156.9097     195.1548
   1418.40100     172.7878     145.3641    1402.77600     155.8600     193.8166
   1418.38574     170.9962     145.0987    1402.76074     155.9752     194.2343
   1418.37048     171.4178     146.3314    1402.74548     154.7321     191.6858
   1418.35522     172.3906     146.1989    1402.73022     156.2284     195.0544
   1418.33996     173.0920     145.8240    1402.71496     156.0289     197.2621
   1418.32470     173.5370     147.4435    1402.69970     156.3963     194.4562
   1418.30944     171.2568     145.9886    1402.68444     156.2328     196.6669
   1418.29418     173.8729     147.6154    1402.66918     157.6814     196.6979
   1418.27893     172.4283     147.0751    1402.65393     155.9804     196.9132
   1418.26367     171.8994     148.6549    1402.63867     157.3706     196.9274
   1418.24841     171.8127     148.7147    1402.62341     156.2726     198.4344
   1418.23315     172.2951     148.4165    1402.60815     155.9229     198.4901
   1418.21789     172.3724     148.7925    1402.59289     155.7253     198.4517
   1418.20263     172.9909     150.2030    1402.57763     157.1094     200.4773
   1418.18737     171.7614     148.8180    1402.56237     157.1042     200.1718
   1418.17211     171.3033     149.7308    1402.54711     157.6724     199.7909
   1418.15686     172.6157     149.9814    1402.53186     155.9119     201.5741
   1418.14160     173.4407     149.0224    1402.51660     157.7081     202.2604
   1418.12634     170.5621     150.2925    1402.50134     157.8647     202.6118
   1418.11108     169.8462     150.6249    1402.48608     157.2417     202.9564
   1418.09582     170.0269     150.3947    1402.47082     156.4697     203.0095
   1418.08056     171.2076     151.4292    1402.45556     158.3006     203.5998
   1418.06530     169.2108     152.4354    1402.44030     157.5603     205.2913
   1418.05004     170.3669     152.7694    1402.42504     157.0252     204.8926
   1418.03479     171.9328     151.7672    1402.40979     157.7860     206.9339
   1418.01953     171.0514     152.6977    1402.39453     156.1312     205.3134
   1418.00427     169.4149     152.6159    1402.37927     157.7075     207.4999
   1417.98901     170.4663     152.7744    1402.36401     156.8260     205.8376
   1417.97375     171.0737     155.2954    1402.34875     158.5312     207.5572
   1417.95849     170.6020     152.6576    1402.33349     157.2535     207.5981
   1417.94323     169.1507     153.7061    1402.31823     158.1130     208.3188
   1417.92797     171.0112     154.5903    1402.30297     159.1263     207.7867
   1417.91271     171.9201     155.1989    1402.28771     159.4479     209.3785
   1417.89746     170.6050     155.0063    1402.27246     157.9821     209.7225
   1417.88220     171.3875     156.0731    1402.25720     158.8984     209.2759
   1417.86694     170.4861     156.3514    1402.24194     158.8546     212.0179
   1417.85168     170.6990     154.4991    1402.22668     157.1951     213.5469
   1417.83642     169.8942     156.0283    1402.21142     157.6969     211.4868
   1417.82116     169.6167     156.4400    1402.19616     160.3162     213.0900
   1417.80590     172.9575     156.5569    1402.18090     158.6053     211.9697
   1417.79064     170.3877     156.4627    1402.16564     159.5929     212.6068
   1417.77539     170.5205     157.8463    1402.15039     159.6391     213.3452
   1417.76013     169.9858     159.2098    1402.13513     159.7515     215.6765
   1417.74487     170.9321     158.7684    1402.11987     159.1766     216.0769
   1417.72961     170.0571     158.4637    1402.10461     158.7973     215.9826
   1417.71435     170.8477     158.7669    1402.08935     159.8235     217.0967
   1417.69909     169.0237     157.9695    1402.07409     159.2715     217.9616
   1417.68383     169.8245     158.4952    1402.05883     161.3589     215.5372
   1417.66857     170.2844     159.5861    1402.04357     160.5361     218.1845
   1417.65332     170.2520     161.7129    1402.02832     159.9849     218.0052
   1417.63806     169.0039     159.8694    1402.01306     160.9730     218.0510
   1417.62280     170.9532     160.8366    1401.99780     160.2827     218.4255
   1417.60754     170.8642     161.2026    1401.98254     160.2889     217.5791
   1417.59228     168.6826     161.3195    1401.96728     162.6834     220.0616
   1417.57702     169.2847     161.7901    1401.95202     160.7873     221.7648
   1417.56176     169.9739     163.6107    1401.93676     160.3878     220.2934
   1417.54650     168.5447     162.3282    1401.92150     161.8075     222.6127
   1417.53125     168.8515     162.5688    1401.90625     160.7231     222.9576
   1417.51599     169.0897     161.4467    1401.89099     161.6208     221.7798
   1417.50073     169.2114     163.4691    1401.87573     159.8818     223.4874
   1417.48547     169.7086     163.4351    1401.86047     161.5845     223.6351
   1417.47021     169.7012     165.0904    1401.84521     161.7247     224.8158
   1417.45495     168.4076     165.6415    1401.82995     161.8849     223.6247
   1417.43969     168.6205     163.4005    1401.81469     161.1890     226.0317
   1417.42443     168.6165     164.2342    1401.79943     161.6012     225.9653
   1417.40917     169.9289     164.5139    1401.78417     162.4604     225.0198
   1417.39392     167.9207     164.9938    1401.76892     161.6701     225.0212
   1417.37866     168.5384     165.8773    1401.75366     161.2858     226.2491
   1417.36340     168.2657     165.8779    1401.73840     162.2722     228.3148
   1417.34814     171.2826     166.1964    1401.72314     161.2391     226.6403
   1417.33288     168.9708     164.6103    1401.70788     163.8049     229.6287
   1417.31762     168.2710     166.3154    1401.69262     162.9600     229.2184
   1417.30236     170.2076     165.6407    1401.67736     162.1252     229.4004
   1417.28710     168.7825     166.4549    1401.66210     163.5715     229.3838
   1417.27185     168.6733     169.1008    1401.64685     162.2213     231.0051
   1417.25659     168.3410     166.9677    1401.63159     163.2845     229.9602
   1417.24133     167.5680     167.1740    1401.61633     162.3882     230.0194
   1417.22607     167.7111     168.5395    1401.60107     163.1869     229.9850
   1417.21081     169.2749     167.9724    1401.58581     162.2336     230.6416
   1417.19555     168.5043     169.0158    1401.57055     162.6140     230.2885
   1417.18029     166.5223     169.6387    1401.55529     161.1448     230.4267
   1417.16503     168.2745     170.6654    1401.54003     163.0590     231.6227
   1417.14978     167.5829     169.4030    1401.52478     161.1305     229.7280
   1417.13452     167.1930     168.7456    1401.50952     161.6053     231.9448
   1417.11926     168.9349     168.8518    1401.49426     162.7000     232.0247
   1417.10400     168.3663     169.8699    1401.47900     162.0242     233.6119
   1417.08874     167.6374     169.2400    1401.46374     163.1136     233.7507
   1417.07348     167.5362     169.4869    1401.44848     161.7870     234.4982
   1417.05822     167.4265     170.2123    1401.43322     162.7580     233.3444
   1417.04296     167.6837     168.7008    1401.41796     162.7110     233.1549
   1417.02771     168.8478     171.6875    1401.40271     163.1967     233.1420
   1417.01245     168.1821     172.2252    1401.38745     162.8008     234.5299
   1416.99719     166.7996     172.3027    1401.37219     162.4205     235.1432
   1416.98193     166.4726     170.6991    1401.35693     163.9165     235.7608
   1416.96667     166.8214     173.1000    1401.34167     162.0621     235.3801
   1416.95141     166.7399     171.7895    1401.32641     163.2814     234.0699
   1416.93615     166.6309     172.1282    1401.31115     162.8744     235.9902
   1416.92089     166.0906     171.1301    1401.29589     162.5262     235.6993
   1416.90563     167.8599     171.2434    1401.28063     163.4827     237.6949
   1416.89038     167.9338     173.1846    1401.26538     162.1059     234.7129
   1416.87512     168.0541     174.2237    1401.25012     162.5893     236.4277
   1416.85986     165.6202     173.5936    1401.23486     161.6932     235.6903
   1416.84460     167.1010     172.7185    1401.21960     161.2613     236.7833
   1416.82934     167.4500     172.5702    1401.20434     161.0898     238.3067
   1416.81408     166.4091     172.4752    1401.18908     162.9385     236.8020
   1416.79882     164.8459     171.4074    1401.17382     160.1424     238.8687
   1416.78356     166.9266     174.1155    1401.15856     162.3491     234.1869
   1416.76831     166.5905     175.1482    1401.14331     162.3844     237.9229
   1416.75305     166.3626     173.6269    1401.12805     162.0506     233.4375
   1416.73779     164.3457     173.7483    1401.11279     163.0035     236.4707
   1416.72253     165.8272     174.4692    1401.09753     162.1957     236.9894
   1416.70727     163.9610     175.4540    1401.08227     161.0621     236.8906
   1416.69201     164.3026     174.2162    1401.06701     161.3884     235.4052
   1416.67675     165.9620     174.1149    1401.05175     161.0682     235.2300
   1416.66149     165.7750     175.0302    1401.03649     159.5358     238.2859
   1416.64624     167.1547     175.7437    1401.02124     160.3117     238.1737
   1416.63098     165.9662     173.0052    1401.00598     160.2186     235.5366
   1416.61572     164.0830     175.6122    1400.99072     158.6407     237.1774
   1416.60046     163.8716     172.7699    1400.97546     160.3830     237.8010
   1416.58520     165.0780     174.3416    1400.96020     160.8846     237.2736
   1416.56994     164.5266     175.0084    1400.94494     160.1972     235.6030
   1416.55468     164.2363     175.3108    1400.92968     158.4801     236.1830
   1416.53942     163.6322     176.3162    1400.91442     159.0821     236.2253
   1416.52417     164.3279     174.6532    1400.89917     159.4617     237.4340
   1416.50891     163.9197     174.9377    1400.88391     157.3115     237.2576
   1416.49365     163.5330     177.2577    1400.86865     159.5886     236.1465
   1416.47839     164.0580     174.9205    1400.85339     158.1497     235.0145
   1416.46313     162.3150     174.3089    1400.83813     157.5102     236.5316
   1416.44787     161.1115     174.5628    1400.82287     158.8757     237.9225
   1416.43261     161.6143     173.4055    1400.80761     156.8777     238.5598
   1416.41735     162.4397     175.0335    1400.79235     157.3412     233.1480
   1416.40209     161.3668     173.7147    1400.77709     157.1473     235.6917
   1416.38684     160.9911     174.6730    1400.76184     156.5541     235.8825
   1416.37158     162.0561     174.2774    1400.74658     155.5477     235.2427
   1416.35632     161.4371     173.8661    1400.73132     155.8730     233.6985
   1416.34106     160.5794     174.4113    1400.71606     156.0623     233.1483
   1416.32580     160.5024     174.5853    1400.70080     154.9923     233.9807
   1416.31054     160.3544     173.1327    1400.68554     153.8130     233.1846
   1416.29528     162.4131     173.0715    1400.67028     153.1890     234.0932
   1416.28002     159.6487     174.4582    1400.65502     153.5765     232.0636
   1416.26477     160.2544     174.1765    1400.63977     153.5194     234.4208
   1416.24951     159.3017     174.0629    1400.62451     152.9252     233.0466
   1416.23425     160.3216     171.4872    1400.60925     151.4374     230.6620
   1416.21899     159.8386     172.3900    1400.59399     152.0863     229.1139
   1416.20373     157.2679     170.6382    1400.57873     152.1863     232.9392
   1416.18847     158.4632     170.3335    1400.56347     151.5660     232.0476
   1416.17321     158.7412     171.5110    1400.54821     150.8533     230.8774
   1416.15795     156.6119     172.1279    1400.53295     150.4550     230.7022
   1416.14270     158.1791     172.2479    1400.51770     149.4377     227.0764
   1416.12744     155.5159     170.5748    1400.50244     150.3006     230.0771
   1416.11218     154.5617     170.9171    1400.48718     150.4823     228.1666
   1416.09692     155.6120     170.1582    1400.47192     150.1897     227.3827
   1416.08166     155.8837     171.2782    1400.45666     149.2912     227.2638
   1416.06640     156.0366     169.3424    1400.44140     147.8924     226.6940
   1416.05114     154.5073     168.2122    1400.42614     146.5290     227.2422
   1416.03588     154.3610     170.7648    1400.41088     146.8897     227.6190
   1416.02062     154.5784     168.1530    1400.39562     146.5515     222.5629
   1416.00537     153.9462     169.4215    1400.38037     146.1062     226.4042
   1415.99011     152.7124     169.3153    1400.36511     146.3553     224.7230
   1415.97485     152.5442     169.6488    1400.34985     144.6505     223.2864
   1415.95959     152.0905     168.4060    1400.33459     143.7654     226.2059
   1415.94433     151.9780     166.1096    1400.31933     144.5189     222.6738
   1415.92907     153.5888     168.3048    1400.30407     143.9015     221.8819
   1415.91381     150.3313     166.9518    1400.28881     141.6152     219.6361
   1415.89855     151.4515     167.3607    1400.27355     141.4098     219.6065
   1415.88330     150.6860     166.1998    1400.25830     141.0968     217.2391
   1415.86804     150.2516     165.3818    1400.24304     140.7571     220.2507
   1415.85278     149.6841     165.7885    1400.22778     140.2546     219.6528
   1415.83752     149.8687     165.2285    1400.21252     138.5874     219.1437
   1415.82226     147.7386     164.6392    1400.19726     138.4277     216.0349
   1415.80700     147.1766     164.8323    1400.18200     137.9625     217.3134
   1415.79174     149.6952     165.0390    1400.16674     138.6008     214.3195
   1415.77648     148.5322     162.0663    1400.15148     136.8469     214.6737
   1415.76123     146.2072     162.7357    1400.13623     137.9828     213.4282
   1415.74597     145.6160     160.5618    1400.12097     137.1274     210.9725
   1415.73071     146.0823     160.6224    1400.10571     135.2792     211.0996
   1415.71545     145.5762     160.6260    1400.09045     135.8530     210.8587
   1415.70019     144.5843     159.8961    1400.07519     134.1950     209.6086
   1415.68493     144.5785     160.6082    1400.05993     134.1004     211.1935
   1415.66967     142.8507     161.0356    1400.04467     132.6667     208.3361
   1415.65441     144.3549     160.5189    1400.02941     133.5256     208.1392
   1415.63916     143.6192     159.4262    1400.01416     131.4932     207.8089
   1415.62390     142.0146     157.8254    1399.99890     131.4928     206.5882
   1415.60864     141.8186     157.8443    1399.98364     130.2121     206.3805
   1415.59338     140.6022     157.0111    1399.96838     129.7862     202.2291
   1415.57812     140.1822     155.1573    1399.95312     128.1356     202.6113
   1415.56286     140.2832     156.0108    1399.93786     128.3728     203.7663
   1415.54760     138.8794     155.5128    1399.92260     128.4778     202.6697
   1415.53234     138.7164     153.7582    1399.90734     127.0247     200.7942
   1415.51708     137.7099     153.5254    1399.89208     127.5326     199.1547
   1415.50183     137.5754     153.8179    1399.87683     126.5408     200.0344
   1415.48657     137.9151     154.4570    1399.86157     125.6592     198.4097
   1415.47131     136.2973     151.6432    1399.84631     123.9311     195.5483
   1415.45605     136.3999     150.9581    1399.83105     124.3933     197.0532
   1415.44079     135.8703     150.6180    1399.81579     123.7150     194.2690
   1415.42553     135.4616     151.8170    1399.80053     121.7894     193.1435
   1415.41027     135.6262     149.7004    1399.78527     120.7875     192.7636
   1415.39501     132.8098     148.8804    1399.77001     120.3289     192.1791
   1415.37976     132.7400     148.9212    1399.75476     120.9986     191.7156
   1415.36450     131.8279     147.4818    1399.73950     118.2234     188.2667
   1415.34924     133.1506     147.2668    1399.72424     119.5828     190.0865
   1415.33398     132.5033     144.8514    1399.70898     118.0971     187.0589
   1415.31872     130.7749     143.9099    1399.69372     118.8737     186.4292
   1415.30346     129.5385     144.0923    1399.67846     116.9645     185.2785
   1415.28820     129.3790     143.6018    1399.66320     116.6823     183.5532
   1415.27294     129.6485     143.2924    1399.64794     115.8978     181.5429
   1415.25769     128.8948     142.0956    1399.63269     114.8976     184.0027
   1415.24243     126.5830     141.6312    1399.61743     113.5609     180.4752
   1415.22717     126.9491     141.3248    1399.60217     114.8830     182.1429
   1415.21191     127.1764     141.6839    1399.58691     113.3039     177.9891
   1415.19665     125.6913     139.7001    1399.57165     111.8787     178.6254
   1415.18139     125.7268     138.8050    1399.55639     111.5270     177.7731
   1415.16613     125.2194     137.7163    1399.54113     111.1569     176.0258
   1415.15087     123.0879     135.3715    1399.52587     111.0281     174.2266
   1415.13562     123.3073     136.4976    1399.51062     109.7981     173.0882
   1415.12036     121.5806     134.0355    1399.49536     109.2544     171.3578
   1415.10510     121.9895     135.4334    1399.48010     108.2395     172.5484
   1415.08984     121.3746     134.2717    1399.46484     108.3122     171.4269
   1415.07458     119.8987     133.4233    1399.44958     107.4582     171.4237
   1415.05932     120.7576     133.3544    1399.43432     107.5172     170.4820
   1415.04406     118.3238     131.9726    1399.41906     105.8929     166.7131
   1415.02880     118.0289     130.3122    1399.40380     105.0773     167.2460
   1415.01354     118.6866     130.5333    1399.38854     103.8571     165.4858
   1414.99829     116.1461     128.9641    1399.37329     103.2582     164.2516
   1414.98303     117.0965     129.2193    1399.35803     102.9415     164.8906
   1414.96777     116.2128     127.9982    1399.34277     102.2392     162.0644
   1414.95251     116.0927     126.8995    1399.32751     101.0276     161.5462
   1414.93725     114.2971     125.3343    1399.31225     101.6939     158.6588
   1414.92199     114.0382     126.3709    1399.29699     100.7480     158.2256
   1414.90673     114.3553     124.0287    1399.28173     100.2393     158.8620
   1414.89147     112.1636     123.4612    1399.26647     100.3312     157.7689
   1414.87622     112.3311     122.5997    1399.25122      98.9415     157.5629
