#     FILENAME=Skynet_59007_gl40_45083_54667.A.spect.cal.txt
#     BASENAME=Skynet_59007_gl40_45083_54667
#      CONTROL=SKYNET
#     PROJCODE=Skynet_59007_gl40_45083
#     DATAROOT=/raid/scratch/cyborg/SkynetData
#      DATADIR=/raid/scratch/cyborg
#     DATADIR2=/raid/scratch/cyborg/SkynetData/Skynet_59007_gl40_45083/Cyborg
#     SCANNAME=2018_05_24_20
#     SRC_NAME=gl40
#     OBSERVER=reichart_2118
#     DATE_OBS=2020-06-07T04:30:17.310
#        OBSID=45083
#      SCANNUM=54667
#          MJD=59007.1877003
#          UTC=16217
#     SCANTYPE=track
#     DATAMODE=HIRES
#     RECEIVER=Rx1_2
#      OBSFREQ=1395.0000
# Actual_FREQ1=1421.8800,
# Actual_FREQ2=1406.2550
#    LO1Tuning=6856.2600
#     RFFILTER=1355_1435
#        OBSBW=-15.6250
#     EFFBANDW=15.6250
#        NCHAN=1024
#    STARTCHAN=51
#     STOPCHAN=972
#         TINT=0.3000
#         TBIN=0.00013107
#       ACCLEN=2048 
#     DURATION=17.40
#     EXPOSURE=2.40
#        FOCUS=37.093
#       RA,DEC=19:04:39.35, 06:17:12.44
#      RA(deg)=286.08793
#     DEC(deg)=6.28611
#   WIDTH(deg)=0.0194x0.0113
#    AZIM(deg)=118.2663
#    ELEV(deg)=39.7980
#     COORDREF=LNG_LAT
#         HREF=40.0000
#         VREF=0.0000
#      RADESYS=FK5
#       OFFSYS=RADEC
#      EQUINOX=2000.00
#     IFATTENS=22.00, 6.00
#   BALANCELEV=1.200 
#   POWER_XLYR=[1.23, 1.22] 
#       VELDEF=RADI-OBS 
#     VELOCITY=0.000 
#         NPOL=2 
#      POLMODE=Linear 
#      POLTYPE=XXYY 
#      WARNING=None 
#     NOISECAL=HI 
#       PRECAL=2 
#      POSTCAL=2 
#     CRYOTEMP=15 
#      BOXTEMP=33 
#         TSYS=XX1:48.74, YY1:46.99
#         TSYS=XX2:43.53, YY2:51.73
#         TCAL=XX1:9.17, YY1:10.07
#         TCAL=XX2:9.16, YY2:9.99
# Calibrated spectra 
#                
#                
#Freq1(MHz)         XX1          YY1   Freq2(MHz)       XX2         YY2 
   1428.91430      23.8209      29.6803    1413.28930      24.8217      38.8837
   1428.89904      24.1385      29.7417    1413.27404      25.1665      39.2875
   1428.88378      24.0849      29.9574    1413.25878      24.9234      39.3924
   1428.86853      23.9177      30.0265    1413.24353      25.2090      39.0508
   1428.85327      24.1777      30.4999    1413.22827      25.4431      39.4279
   1428.83801      24.1081      30.4636    1413.21301      25.3022      39.7461
   1428.82275      24.4715      30.5954    1413.19775      25.5769      39.5432
   1428.80749      24.6420      31.2077    1413.18249      25.7415      39.9544
   1428.79223      24.3256      30.8206    1413.16723      25.7502      40.1805
   1428.77697      24.5743      30.9442    1413.15197      25.9706      40.4393
   1428.76171      24.7624      31.6156    1413.13671      26.0475      40.7264
   1428.74646      24.7943      31.2565    1413.12146      26.1211      41.1309
   1428.73120      24.9849      32.0807    1413.10620      26.3006      41.1481
   1428.71594      25.3025      31.9471    1413.09094      26.4912      41.6146
   1428.70068      25.1694      31.9778    1413.07568      26.6100      41.5222
   1428.68542      25.3972      32.2828    1413.06042      26.8321      41.9576
   1428.67016      25.3209      32.8342    1413.04516      26.9929      41.6196
   1428.65490      25.5643      32.7421    1413.02990      26.9159      41.9758
   1428.63964      25.7189      33.1622    1413.01464      27.2456      42.2334
   1428.62438      25.7318      33.1705    1412.99938      27.1624      41.9412
   1428.60913      26.0571      33.4578    1412.98413      27.4107      42.7641
   1428.59387      25.9286      33.3940    1412.96887      27.7369      42.8107
   1428.57861      26.1961      33.8955    1412.95361      27.7848      43.3066
   1428.56335      26.0941      34.1135    1412.93835      27.6103      43.3958
   1428.54809      26.3467      34.4447    1412.92309      28.1491      43.4653
   1428.53283      26.6408      34.5092    1412.90783      28.2260      43.1264
   1428.51757      26.7630      34.7042    1412.89257      28.3183      43.9021
   1428.50231      26.5653      34.8162    1412.87731      28.6286      44.4462
   1428.48706      26.9454      35.1867    1412.86206      28.7468      44.2645
   1428.47180      26.9173      35.2328    1412.84680      29.0849      44.5255
   1428.45654      26.9600      36.0566    1412.83154      28.8258      44.5031
   1428.44128      27.2206      35.8698    1412.81628      29.0986      45.0238
   1428.42602      27.2888      36.0430    1412.80102      29.1689      45.1841
   1428.41076      27.4619      36.6328    1412.78576      29.2866      45.3640
   1428.39550      27.8706      36.5412    1412.77050      29.3400      45.3245
   1428.38024      27.8027      36.8918    1412.75524      29.7602      45.5714
   1428.36499      27.7415      37.0624    1412.73999      29.7891      46.0620
   1428.34973      27.9622      37.0684    1412.72473      29.9347      46.4144
   1428.33447      27.9644      37.4647    1412.70947      29.9405      46.3297
   1428.31921      28.1637      37.8608    1412.69421      30.4293      46.5510
   1428.30395      28.1816      38.0905    1412.67895      30.5602      46.7542
   1428.28869      28.4465      38.1830    1412.66369      30.6907      47.1373
   1428.27343      28.7468      38.5173    1412.64843      30.7617      47.5161
   1428.25817      28.6702      38.6539    1412.63317      30.7162      48.0733
   1428.24292      28.8539      39.4012    1412.61792      31.1071      47.9233
   1428.22766      29.2404      39.0861    1412.60266      31.1660      47.9697
   1428.21240      29.0465      39.3882    1412.58740      31.7505      47.9984
   1428.19714      29.3386      39.7853    1412.57214      31.5392      48.4849
   1428.18188      29.6827      39.8608    1412.55688      31.3458      48.4570
   1428.16662      29.7519      40.2616    1412.54162      31.8370      48.8104
   1428.15136      29.6981      40.4587    1412.52636      32.0042      49.0328
   1428.13610      29.8365      40.6492    1412.51110      32.0570      49.0125
   1428.12084      30.2974      40.6284    1412.49584      32.0865      48.9899
   1428.10559      30.1438      41.1849    1412.48059      31.9664      49.6830
   1428.09033      30.4021      41.6076    1412.46533      32.5124      50.2463
   1428.07507      30.2013      41.6138    1412.45007      32.6611      49.7555
   1428.05981      30.9397      41.6557    1412.43481      32.6848      50.1615
   1428.04455      30.5380      42.1797    1412.41955      32.8574      50.4395
   1428.02929      30.5362      42.3244    1412.40429      33.2308      50.4860
   1428.01403      31.1397      42.4728    1412.38903      33.1093      50.7836
   1427.99877      30.8563      42.9160    1412.37377      33.0893      51.2365
   1427.98352      30.9673      43.0359    1412.35852      33.4846      51.0177
   1427.96826      31.2788      43.5689    1412.34326      33.5717      51.2978
   1427.95300      31.4201      43.5983    1412.32800      33.5128      51.2732
   1427.93774      31.6235      43.9969    1412.31274      33.7284      51.9747
   1427.92248      31.7523      44.0446    1412.29748      33.9732      52.1171
   1427.90722      32.0277      44.1908    1412.28222      34.0295      51.7780
   1427.89196      31.9721      44.3314    1412.26696      34.2667      51.9511
   1427.87670      32.4756      44.7589    1412.25170      34.4792      52.1268
   1427.86145      32.0262      45.0488    1412.23645      34.1958      52.9411
   1427.84619      32.5066      45.1271    1412.22119      34.6064      52.4119
   1427.83093      32.0208      45.1692    1412.20593      34.4772      53.1139
   1427.81567      32.7321      45.9810    1412.19067      34.5268      53.1517
   1427.80041      32.8521      45.7730    1412.17541      34.9517      53.4226
   1427.78515      32.8995      46.3130    1412.16015      35.2583      53.3477
   1427.76989      32.8776      46.4754    1412.14489      35.4623      53.6833
   1427.75463      32.8815      46.8551    1412.12963      35.0669      54.1967
   1427.73937      33.3756      47.0098    1412.11437      35.3989      53.9175
   1427.72412      33.4541      47.1546    1412.09912      35.2657      54.1043
   1427.70886      33.5546      47.2901    1412.08386      35.4854      54.5119
   1427.69360      33.5125      48.1085    1412.06860      35.4638      54.3874
   1427.67834      33.5600      47.7500    1412.05334      35.9192      54.4577
   1427.66308      33.5624      48.0741    1412.03808      35.9340      54.7560
   1427.64782      33.9226      48.1160    1412.02282      36.2026      55.4886
   1427.63256      33.9599      48.6854    1412.00756      36.1876      55.0090
   1427.61730      33.8380      49.1236    1411.99230      36.4196      55.2322
   1427.60205      33.9417      48.3286    1411.97705      36.3915      55.5986
   1427.58679      34.2173      49.2689    1411.96179      36.4258      55.4231
   1427.57153      34.2834      49.2169    1411.94653      36.5036      55.5878
   1427.55627      34.5806      49.1348    1411.93127      36.3030      55.4779
   1427.54101      34.3820      49.5665    1411.91601      36.8114      55.8098
   1427.52575      34.8170      50.0663    1411.90075      36.9144      55.5254
   1427.51049      35.0124      49.8915    1411.88549      36.4375      55.9778
   1427.49523      35.0994      49.9805    1411.87023      37.1170      56.3375
   1427.47998      35.3098      50.2367    1411.85498      37.0284      56.3546
   1427.46472      35.1976      50.4236    1411.83972      37.1613      55.6847
   1427.44946      35.2821      51.2273    1411.82446      37.1261      56.2551
   1427.43420      35.3535      50.7795    1411.80920      37.4236      56.2407
   1427.41894      35.8936      51.3343    1411.79394      37.2426      56.0570
   1427.40368      35.6177      50.8835    1411.77868      37.0697      55.9782
   1427.38842      35.5937      51.5398    1411.76342      37.6548      56.2944
   1427.37316      35.5438      51.5189    1411.74816      37.8229      56.4345
   1427.35791      35.7516      51.6034    1411.73291      37.9899      57.3133
   1427.34265      35.8996      52.5150    1411.71765      38.0352      56.1964
   1427.32739      36.5283      51.7579    1411.70239      38.2049      56.5213
   1427.31213      36.0232      52.2575    1411.68713      38.0968      57.4105
   1427.29687      36.2325      52.3450    1411.67187      38.3922      56.8353
   1427.28161      36.4673      52.2543    1411.65661      38.1933      57.0447
   1427.26635      36.4117      52.2149    1411.64135      38.0947      57.3583
   1427.25109      36.4934      52.3352    1411.62609      38.1325      57.0518
   1427.23583      36.4449      52.7144    1411.61083      38.3683      56.9790
   1427.22058      36.4009      53.0724    1411.59558      38.5411      56.8159
   1427.20532      36.6396      53.6054    1411.58032      38.3794      57.7067
   1427.19006      36.9293      52.8783    1411.56506      37.9371      57.6101
   1427.17480      36.7558      53.3765    1411.54980      38.6747      57.5973
   1427.15954      37.3198      52.8232    1411.53454      38.4978      57.5452
   1427.14428      36.8279      53.3070    1411.51928      38.7934      56.9771
   1427.12902      37.1351      53.7765    1411.50402      38.6399      58.0401
   1427.11376      37.1830      53.5239    1411.48876      38.9983      58.1842
   1427.09851      37.2329      53.7812    1411.47351      39.0646      57.8421
   1427.08325      37.4516      53.8128    1411.45825      39.1201      57.6642
   1427.06799      37.4183      54.4205    1411.44299      38.7369      57.8603
   1427.05273      37.7223      54.4211    1411.42773      38.9945      57.5285
   1427.03747      37.3491      54.2146    1411.41247      38.9701      58.0231
   1427.02221      37.6088      54.2715    1411.39721      38.8578      57.9405
   1427.00695      37.5718      54.8290    1411.38195      39.1437      57.6906
   1426.99169      37.9419      54.5394    1411.36669      39.3848      58.2283
   1426.97644      37.8804      54.0358    1411.35144      39.2089      57.8590
   1426.96118      37.9770      54.3652    1411.33618      39.6072      57.7527
   1426.94592      37.6097      54.5397    1411.32092      39.6194      57.4318
   1426.93066      37.7861      54.6349    1411.30566      39.4573      57.5512
   1426.91540      38.1319      55.0313    1411.29040      39.4504      57.6144
   1426.90014      38.3191      54.5070    1411.27514      39.5796      58.0513
   1426.88488      37.8578      55.0463    1411.25988      39.6195      58.2432
   1426.86962      38.3573      55.2335    1411.24462      39.7804      57.7448
   1426.85437      38.0990      54.9247    1411.22937      39.5769      57.9965
   1426.83911      38.6134      55.4470    1411.21411      39.6839      57.8508
   1426.82385      38.5711      55.1986    1411.19885      39.7099      58.1498
   1426.80859      38.5989      54.9914    1411.18359      39.9567      57.6403
   1426.79333      38.5200      54.9173    1411.16833      40.1150      57.5922
   1426.77807      38.9908      55.4037    1411.15307      39.6809      57.3848
   1426.76281      38.8420      55.5227    1411.13781      39.6353      57.6323
   1426.74755      38.9551      54.7470    1411.12255      40.0593      58.1970
   1426.73229      38.6548      55.6864    1411.10729      40.0562      57.1653
   1426.71704      38.9799      55.8072    1411.09204      39.9682      57.3118
   1426.70178      38.5166      55.0654    1411.07678      40.4751      57.1298
   1426.68652      38.9640      56.0266    1411.06152      40.3271      57.1589
   1426.67126      38.7673      55.2996    1411.04626      40.5149      57.6907
   1426.65600      38.9713      55.4081    1411.03100      40.2587      57.3981
   1426.64074      39.0235      55.4231    1411.01574      40.2090      57.3466
   1426.62548      38.9975      56.1535    1411.00048      40.3536      57.5119
   1426.61022      39.4421      56.0042    1410.98522      40.2917      57.7528
   1426.59497      39.1645      55.8686    1410.96997      40.4473      57.0880
   1426.57971      39.5589      55.2475    1410.95471      40.0908      57.2255
   1426.56445      39.2382      55.3995    1410.93945      40.1449      56.7169
   1426.54919      39.4368      55.1732    1410.92419      40.7559      57.4754
   1426.53393      39.7511      55.4105    1410.90893      40.0771      57.1944
   1426.51867      39.8456      55.6243    1410.89367      40.4745      56.9942
   1426.50341      39.6685      55.8056    1410.87841      40.3673      57.2122
   1426.48815      39.5566      56.2738    1410.86315      40.1955      57.5503
   1426.47290      39.5141      55.5392    1410.84790      40.2156      57.2248
   1426.45764      39.7560      55.4150    1410.83264      40.2339      57.1642
   1426.44238      39.7087      55.7960    1410.81738      40.4700      56.9410
   1426.42712      39.8349      55.3598    1410.80212      40.4910      56.3753
   1426.41186      39.8271      56.0538    1410.78686      40.6578      56.4066
   1426.39660      39.7160      55.3007    1410.77160      40.3772      56.8185
   1426.38134      40.0712      56.4707    1410.75634      40.5378      56.5240
   1426.36608      39.6080      55.4476    1410.74108      40.6550      56.1425
   1426.35083      40.1338      56.0139    1410.72583      40.6573      56.0382
   1426.33557      39.8634      55.7693    1410.71057      40.5964      56.0408
   1426.32031      40.0387      55.6346    1410.69531      40.2679      56.1882
   1426.30505      40.3059      56.0579    1410.68005      40.2165      56.0724
   1426.28979      40.2737      55.3365    1410.66479      40.3500      55.7541
   1426.27453      40.2613      55.4197    1410.64953      40.4315      56.2317
   1426.25927      40.2783      55.5965    1410.63427      40.8842      55.7899
   1426.24401      40.3083      55.1944    1410.61901      40.6677      55.0439
   1426.22875      40.3323      55.5974    1410.60375      40.2574      55.5998
   1426.21350      40.3336      55.2623    1410.58850      40.6245      55.2878
   1426.19824      40.5509      54.8377    1410.57324      40.6693      55.2995
   1426.18298      40.5709      55.8751    1410.55798      40.6022      55.5882
   1426.16772      40.5436      55.2797    1410.54272      40.7445      55.4595
   1426.15246      40.9551      55.9024    1410.52746      40.6157      55.3593
   1426.13720      40.9203      55.1875    1410.51220      40.6294      55.2998
   1426.12194      40.7119      54.3758    1410.49694      40.7092      55.2770
   1426.10668      40.6602      55.0306    1410.48168      40.7053      54.9002
   1426.09143      40.7366      54.9989    1410.46643      40.3710      54.6630
   1426.07617      40.7559      55.0705    1410.45117      40.5781      54.9843
   1426.06091      41.0217      54.8589    1410.43591      40.9411      54.7291
   1426.04565      40.6408      54.9813    1410.42065      40.8761      54.6339
   1426.03039      40.7708      54.8223    1410.40539      40.8112      54.7600
   1426.01513      41.1498      54.6239    1410.39013      40.5352      54.7188
   1425.99987      40.7499      54.4703    1410.37487      40.4111      54.3959
   1425.98461      40.9891      54.0860    1410.35961      41.1572      53.6338
   1425.96936      40.9664      54.6409    1410.34436      40.3461      54.1907
   1425.95410      41.2341      55.0339    1410.32910      41.0012      53.6278
   1425.93884      40.9995      54.3075    1410.31384      40.5693      54.0718
   1425.92358      41.3578      54.6144    1410.29858      40.9732      53.7785
   1425.90832      40.8859      54.0060    1410.28332      40.6768      53.1881
   1425.89306      41.1731      53.8281    1410.26806      40.7512      53.0768
   1425.87780      41.4626      54.5452    1410.25280      40.8038      53.7229
   1425.86254      40.9319      54.0853    1410.23754      40.7766      53.8234
   1425.84729      41.3057      53.4105    1410.22229      41.0642      53.0029
   1425.83203      41.6438      53.9457    1410.20703      40.8459      52.9875
   1425.81677      41.2612      53.3512    1410.19177      40.9103      52.5290
   1425.80151      41.3961      53.7383    1410.17651      40.8403      52.7399
   1425.78625      41.1105      53.4778    1410.16125      40.8876      52.8748
   1425.77099      41.7048      53.2047    1410.14599      41.0501      52.6554
   1425.75573      41.6071      53.8826    1410.13073      40.9838      52.8912
   1425.74047      42.1033      53.2136    1410.11547      41.3589      52.4209
   1425.72521      41.9396      53.4728    1410.10021      40.7935      52.4048
   1425.70996      41.5329      53.9009    1410.08496      41.1315      52.2630
   1425.69470      41.6191      53.6678    1410.06970      40.9105      52.5148
   1425.67944      41.6085      53.1064    1410.05444      41.5437      52.0690
   1425.66418      41.9754      53.0548    1410.03918      40.6983      52.0337
   1425.64892      41.9747      53.0466    1410.02392      40.9410      51.6570
   1425.63366      41.5777      53.1686    1410.00866      41.1490      52.1387
   1425.61840      42.5056      52.8633    1409.99340      40.9744      52.1547
   1425.60314      42.0000      53.0075    1409.97814      41.1439      51.6773
   1425.58789      42.2160      53.3728    1409.96289      41.0143      51.2472
   1425.57263      42.0844      52.7786    1409.94763      40.9672      51.7169
   1425.55737      42.0694      53.2625    1409.93237      40.9936      51.1462
   1425.54211      42.1899      52.4043    1409.91711      40.9477      51.1021
   1425.52685      42.1913      53.0269    1409.90185      40.8180      50.9939
   1425.51159      42.2486      52.1205    1409.88659      41.0257      51.4048
   1425.49633      42.0406      52.0493    1409.87133      41.2328      50.7968
   1425.48107      42.4968      51.9445    1409.85607      41.2147      50.4804
   1425.46582      42.1904      51.9969    1409.84082      40.7818      50.0911
   1425.45056      42.4115      52.1503    1409.82556      40.8494      50.6799
   1425.43530      42.5508      52.2927    1409.81030      41.1478      50.7234
   1425.42004      42.4427      51.8476    1409.79504      40.7895      50.5438
   1425.40478      42.5944      51.5724    1409.77978      41.3692      50.3483
   1425.38952      43.1021      51.7476    1409.76452      40.6217      49.6881
   1425.37426      42.7576      51.7635    1409.74926      40.8858      49.8331
   1425.35900      42.7522      51.6990    1409.73400      41.2428      49.0829
   1425.34375      42.5628      51.3043    1409.71875      40.8735      49.5196
   1425.32849      42.4768      51.1939    1409.70349      41.5682      49.4458
   1425.31323      43.0089      51.5189    1409.68823      41.2102      49.2567
   1425.29797      43.1546      51.1514    1409.67297      41.1482      49.3050
   1425.28271      42.8082      51.7191    1409.65771      41.1421      49.6969
   1425.26745      43.2101      51.1868    1409.64245      41.0500      49.0321
   1425.25219      43.4143      51.3043    1409.62719      41.3076      48.7425
   1425.23693      43.3082      50.8314    1409.61193      41.1981      48.8440
   1425.22167      43.3677      51.3913    1409.59667      41.4138      48.8735
   1425.20642      43.5776      50.9703    1409.58142      41.2613      48.9110
   1425.19116      43.3868      50.5717    1409.56616      41.3361      48.8189
   1425.17590      43.5670      50.4113    1409.55090      41.4738      48.6028
   1425.16064      43.3851      50.7652    1409.53564      41.3241      48.4817
   1425.14538      43.4155      50.7027    1409.52038      41.2808      48.2390
   1425.13012      43.5643      50.3970    1409.50512      41.5272      48.2151
   1425.11486      43.5503      50.0767    1409.48986      41.6978      48.3227
   1425.09960      44.1240      50.5615    1409.47460      41.4038      48.2962
   1425.08435      43.8343      50.6221    1409.45935      41.8282      48.1932
   1425.06909      43.7861      50.0516    1409.44409      41.5116      47.8945
   1425.05383      44.3050      50.6401    1409.42883      41.3493      47.3836
   1425.03857      43.7529      50.2318    1409.41357      41.6952      47.7959
   1425.02331      44.1254      49.8703    1409.39831      41.4535      47.4566
   1425.00805      43.9911      49.8633    1409.38305      41.6566      47.4584
   1424.99279      44.2254      49.7952    1409.36779      41.4368      47.5609
   1424.97753      44.4429      50.1481    1409.35253      41.2530      47.3542
   1424.96228      44.1858      49.6925    1409.33728      41.4519      47.2488
   1424.94702      44.1239      49.3474    1409.32202      41.6555      47.0220
   1424.93176      44.2918      49.7681    1409.30676      41.8895      47.1611
   1424.91650      44.0132      49.1070    1409.29150      41.7302      46.6607
   1424.90124      44.3285      49.3802    1409.27624      41.7626      47.1030
   1424.88598      44.8985      49.0861    1409.26098      41.6632      46.7159
   1424.87072      44.8558      49.6802    1409.24572      41.7905      46.8890
   1424.85546      44.4111      49.6719    1409.23046      41.8725      46.4328
   1424.84021      44.7876      49.2592    1409.21521      41.8857      46.5998
   1424.82495      44.8299      49.1096    1409.19995      42.1990      45.9177
   1424.80969      44.7455      48.7427    1409.18469      41.8198      46.0469
   1424.79443      44.9107      48.8766    1409.16943      42.0100      46.1840
   1424.77917      45.1842      49.0479    1409.15417      42.4103      46.2900
   1424.76391      44.6805      48.8881    1409.13891      41.6793      45.8669
   1424.74865      44.9981      48.3937    1409.12365      41.8839      46.3336
   1424.73339      44.6958      48.8919    1409.10839      42.2486      45.2173
   1424.71813      45.3078      48.3692    1409.09313      42.1018      45.3736
   1424.70288      45.0323      48.4959    1409.07788      42.3483      45.3170
   1424.68762      45.1372      48.1761    1409.06262      42.0144      45.2310
   1424.67236      44.9643      48.3531    1409.04736      42.4963      45.5980
   1424.65710      45.2593      48.2978    1409.03210      42.5334      45.3081
   1424.64184      45.5228      48.1899    1409.01684      42.3285      44.8977
   1424.62658      45.6515      48.2030    1409.00158      42.2926      44.8057
   1424.61132      45.4744      48.0568    1408.98632      42.3648      45.1768
   1424.59606      45.5905      47.6018    1408.97106      42.3232      44.6649
   1424.58081      45.6005      47.5092    1408.95581      42.4653      44.7947
   1424.56555      46.0998      47.8019    1408.94055      42.5420      44.7652
   1424.55029      45.7245      47.7373    1408.92529      42.3623      44.6624
   1424.53503      45.9762      47.5796    1408.91003      42.1130      44.5005
   1424.51977      45.5568      47.4982    1408.89477      42.3315      44.4226
   1424.50451      45.7470      47.4546    1408.87951      42.6096      44.1723
   1424.48925      45.5170      47.6692    1408.86425      42.7877      44.0322
   1424.47399      46.0110      47.0886    1408.84899      42.3828      43.8971
   1424.45874      46.6054      47.1273    1408.83374      42.2421      44.2728
   1424.44348      46.2841      47.1918    1408.81848      42.6053      44.3339
   1424.42822      46.3182      47.3997    1408.80322      43.0082      44.1178
   1424.41296      46.0627      46.5129    1408.78796      42.7222      43.8968
   1424.39770      46.4576      47.0019    1408.77270      42.7767      43.9047
   1424.38244      46.6872      47.1184    1408.75744      42.6596      43.5999
   1424.36718      46.0776      46.4443    1408.74218      42.8381      43.2015
   1424.35192      46.8232      46.6008    1408.72692      43.0992      43.5974
   1424.33667      46.8739      46.6396    1408.71167      42.6012      43.9659
   1424.32141      46.4997      46.5143    1408.69641      43.1836      43.2260
   1424.30615      47.1855      46.6733    1408.68115      42.9693      43.2231
   1424.29089      46.8259      46.2234    1408.66589      42.8645      43.0694
   1424.27563      47.5813      46.0863    1408.65063      43.3649      43.2064
   1424.26037      47.2449      45.8736    1408.63537      43.4227      43.2442
   1424.24511      47.2060      45.8792    1408.62011      42.8101      43.3926
   1424.22985      46.8057      46.0779    1408.60485      42.8606      43.1251
   1424.21459      47.2206      45.6356    1408.58959      43.1323      42.9933
   1424.19934      47.6018      46.2878    1408.57434      43.3479      42.6803
   1424.18408      47.1287      46.1076    1408.55908      43.3148      42.7638
   1424.16882      47.4081      45.8393    1408.54382      43.2062      42.9325
   1424.15356      47.2975      45.3069    1408.52856      43.3434      42.2939
   1424.13830      47.6713      45.3508    1408.51330      43.4086      42.4978
   1424.12304      47.3193      45.6085    1408.49804      43.5302      42.5444
   1424.10778      47.2890      45.4905    1408.48278      43.9513      42.2342
   1424.09252      47.6771      45.4449    1408.46752      43.4990      42.2299
   1424.07727      47.5077      45.8184    1408.45227      43.6144      41.9110
   1424.06201      47.3946      45.0314    1408.43701      43.8758      41.9701
   1424.04675      48.0974      44.9557    1408.42175      43.6562      42.2406
   1424.03149      48.1530      45.2370    1408.40649      43.4931      42.1427
   1424.01623      48.0401      45.3183    1408.39123      43.5911      41.6787
   1424.00097      47.8773      44.8161    1408.37597      43.2001      41.7295
   1423.98571      47.9517      44.7600    1408.36071      43.4021      41.9499
   1423.97045      47.9673      44.7420    1408.34545      43.7441      41.7932
   1423.95520      47.7553      44.3858    1408.33020      43.8257      41.9099
   1423.93994      48.3045      44.8322    1408.31494      44.4080      41.2935
   1423.92468      48.4936      44.6287    1408.29968      44.0921      41.4988
   1423.90942      48.3770      44.2461    1408.28442      43.9658      41.3614
   1423.89416      48.2234      44.4956    1408.26916      44.0318      41.6582
   1423.87890      48.1445      44.1663    1408.25390      44.1547      41.5796
   1423.86364      48.3918      44.0688    1408.23864      43.8897      40.6235
   1423.84838      47.9264      44.2395    1408.22338      44.2337      41.2679
   1423.83312      48.5497      44.3434    1408.20812      44.4937      40.8740
   1423.81787      48.3715      44.3150    1408.19287      43.9311      41.0869
   1423.80261      48.4589      43.5595    1408.17761      44.2496      40.8239
   1423.78735      48.5579      43.9545    1408.16235      44.5518      41.1015
   1423.77209      48.7566      43.9420    1408.14709      44.6901      41.1880
   1423.75683      48.3455      43.9548    1408.13183      44.4192      40.9492
   1423.74157      48.6311      43.9364    1408.11657      44.5986      40.4976
   1423.72631      48.8016      43.7050    1408.10131      44.5501      40.6450
   1423.71105      48.5604      43.3488    1408.08605      44.7465      40.6858
   1423.69580      49.2393      43.3732    1408.07080      44.5867      40.2201
   1423.68054      48.5846      43.3940    1408.05554      45.1501      40.7081
   1423.66528      48.9387      43.0884    1408.04028      44.8408      40.2910
   1423.65002      48.6864      43.2024    1408.02502      44.7948      40.2376
   1423.63476      48.5852      43.0952    1408.00976      44.3851      40.3254
   1423.61950      48.6412      42.7353    1407.99450      44.9010      40.5282
   1423.60424      49.2918      42.8916    1407.97924      45.0822      40.1383
   1423.58898      48.8047      43.0981    1407.96398      44.7924      40.0104
   1423.57373      48.8814      42.8234    1407.94873      45.0761      40.2131
   1423.55847      49.3409      42.8729    1407.93347      45.4125      39.8052
   1423.54321      49.2186      42.8994    1407.91821      44.7451      40.2153
   1423.52795      49.6706      42.8520    1407.90295      45.1402      40.0527
   1423.51269      48.6318      42.9995    1407.88769      45.0882      39.8169
   1423.49743      49.9324      42.2367    1407.87243      45.0988      39.7932
   1423.48217      49.3278      42.5062    1407.85717      45.2317      39.5497
   1423.46691      49.6795      42.6241    1407.84191      45.1814      39.7625
   1423.45166      49.5694      41.7753    1407.82666      45.1696      39.7027
   1423.43640      49.2116      42.1065    1407.81140      44.9263      39.7877
   1423.42114      49.3641      41.9358    1407.79614      45.8189      39.5735
   1423.40588      49.6728      41.9020    1407.78088      45.1810      39.3686
   1423.39062      49.6650      41.8052    1407.76562      45.6671      39.3742
   1423.37536      49.8399      41.8848    1407.75036      45.3925      39.1278
   1423.36010      49.7015      42.0182    1407.73510      45.4547      39.1233
   1423.34484      49.2979      41.8534    1407.71984      45.6478      39.5723
   1423.32958      49.7701      41.6277    1407.70458      45.9824      39.2103
   1423.31433      49.9750      41.7062    1407.68933      45.8284      39.5618
   1423.29907      49.7642      41.6954    1407.67407      45.7204      39.1007
   1423.28381      49.5483      41.5549    1407.65881      46.0108      39.3134
   1423.26855      49.2737      41.0639    1407.64355      46.0710      38.8606
   1423.25329      49.3463      41.5368    1407.62829      45.9217      39.2409
   1423.23803      49.4204      41.4805    1407.61303      46.4729      39.2482
   1423.22277      49.6917      41.1762    1407.59777      46.1797      38.9703
   1423.20751      49.8269      41.2373    1407.58251      46.0445      38.8666
   1423.19226      49.7417      41.1567    1407.56726      45.8763      39.0296
   1423.17700      49.7340      40.9340    1407.55200      46.3176      39.0145
   1423.16174      49.3779      40.7262    1407.53674      46.2342      39.0134
   1423.14648      49.9587      40.6139    1407.52148      46.0872      38.7768
   1423.13122      50.6752      40.7380    1407.50622      46.4327      38.7332
   1423.11596      50.3520      40.7933    1407.49096      45.8652      38.5814
   1423.10070      50.3707      40.5792    1407.47570      46.5742      38.9477
   1423.08544      50.2045      41.0680    1407.46044      46.6107      38.8897
   1423.07019      49.8786      40.4573    1407.44519      46.3324      38.7259
   1423.05493      50.0902      40.3031    1407.42993      46.4283      38.3409
   1423.03967      50.2794      40.6645    1407.41467      46.8946      38.5815
   1423.02441      49.7092      40.1919    1407.39941      46.7771      38.7088
   1423.00915      50.1065      40.3418    1407.38415      46.6557      38.2283
   1422.99389      49.9226      40.6067    1407.36889      46.7387      38.3924
   1422.97863      50.2465      39.9807    1407.35363      46.9790      38.3240
   1422.96337      50.0558      40.2431    1407.33837      46.8811      38.4569
   1422.94812      49.8930      40.2588    1407.32312      47.1125      38.5786
   1422.93286      50.1128      40.1637    1407.30786      46.7224      38.5469
   1422.91760      50.3811      39.8505    1407.29260      46.9406      38.4453
   1422.90234      50.2601      39.8542    1407.27734      47.0731      38.0198
   1422.88708      50.7591      39.8754    1407.26208      46.9561      38.2641
   1422.87182      50.5887      39.1641    1407.24682      47.0644      38.1782
   1422.85656      50.1630      39.2703    1407.23156      46.9678      38.4347
   1422.84130      50.3614      39.8234    1407.21630      47.1385      38.2242
   1422.82604      49.6527      39.4482    1407.20104      47.2620      38.0919
   1422.81079      50.4253      39.5200    1407.18579      46.9058      37.9895
   1422.79553      50.8820      39.7249    1407.17053      47.3546      38.2011
   1422.78027      50.7271      39.4923    1407.15527      47.6730      38.0864
   1422.76501      50.9426      39.2794    1407.14001      47.7433      38.2158
   1422.74975      50.4470      39.4050    1407.12475      47.7169      38.0529
   1422.73449      50.4498      39.0629    1407.10949      47.4754      38.0812
   1422.71923      50.5546      39.1479    1407.09423      48.1472      37.7372
   1422.70397      50.6738      39.0786    1407.07897      47.3291      37.8886
   1422.68872      50.6881      38.7041    1407.06372      47.6891      37.8831
   1422.67346      50.5430      38.8593    1407.04846      47.6800      37.8335
   1422.65820      50.5297      38.8145    1407.03320      47.5230      37.7927
   1422.64294      50.6078      38.8309    1407.01794      47.9230      37.7920
   1422.62768      51.1142      38.9131    1407.00268      48.0539      37.9402
   1422.61242      50.4784      38.7697    1406.98742      47.6481      37.8321
   1422.59716      50.3699      38.6944    1406.97216      48.4503      38.1535
   1422.58190      50.8237      38.4039    1406.95690      47.7847      37.9885
   1422.56665      50.7687      38.6672    1406.94165      48.0358      37.8773
   1422.55139      50.6021      38.7865    1406.92639      48.4059      37.7850
   1422.53613      50.6728      38.5588    1406.91113      47.6505      37.8695
   1422.52087      50.8789      38.2794    1406.89587      48.0363      37.7463
   1422.50561      50.8636      38.3813    1406.88061      48.4128      37.6323
   1422.49035      50.4462      38.0192    1406.86535      47.6373      37.8150
   1422.47509      50.6878      38.2325    1406.85009      48.6154      37.9086
   1422.45983      50.8064      38.2464    1406.83483      48.6464      37.6930
   1422.44458      50.9629      38.4115    1406.81958      48.1544      37.7536
   1422.42932      50.8566      38.1398    1406.80432      48.3313      37.9327
   1422.41406      50.1572      38.0286    1406.78906      48.3593      38.0352
   1422.39880      50.6084      37.9200    1406.77380      48.4450      37.6743
   1422.38354      50.6659      37.9435    1406.75854      48.4824      37.4424
   1422.36828      50.4383      37.9113    1406.74328      48.6729      38.0800
   1422.35302      50.9048      37.8918    1406.72802      48.5448      37.7310
   1422.33776      50.8355      38.2448    1406.71276      48.3057      38.0465
   1422.32250      50.9137      37.8649    1406.69750      48.7531      37.6209
   1422.30725      50.6041      38.0700    1406.68225      48.6965      37.7378
   1422.29199      51.0357      37.9507    1406.66699      48.5190      37.6426
   1422.27673      50.9135      37.4487    1406.65173      48.5376      38.0322
   1422.26147      51.1832      38.0330    1406.63647      48.9494      37.6492
   1422.24621      51.2219      37.5643    1406.62121      49.1908      37.2205
   1422.23095      51.1220      37.4744    1406.60595      48.7663      37.6784
   1422.21569      51.1222      37.4088    1406.59069      49.1019      37.4710
   1422.20043      50.6215      37.3558    1406.57543      49.0664      38.0519
   1422.18518      51.1697      37.3983    1406.56018      49.0783      37.7193
   1422.16992      50.9419      37.4430    1406.54492      49.3477      37.6551
   1422.15466      50.9790      37.6526    1406.52966      48.6483      37.5883
   1422.13940      50.7663      37.2657    1406.51440      48.7673      37.8346
   1422.12414      51.3083      37.3989    1406.49914      48.8350      38.0060
   1422.10888      50.9115      37.6870    1406.48388      48.7793      37.6466
   1422.09362      51.0644      37.2619    1406.46862      49.0209      37.7204
   1422.07836      50.8896      36.9273    1406.45336      49.3453      37.8541
   1422.06311      51.2255      37.3496    1406.43811      49.1508      37.9707
   1422.04785      51.0477      36.8558    1406.42285      49.0906      37.9855
   1422.03259      50.8783      37.0116    1406.40759      49.5375      37.8788
   1422.01733      51.1049      37.5210    1406.39233      49.2857      37.9538
   1422.00207      50.7546      36.7677    1406.37707      49.2232      37.2888
   1421.98681      51.2785      36.9464    1406.36181      49.1093      37.8908
   1421.97155      51.1661      37.4066    1406.34655      49.4078      37.9324
   1421.95629      50.8298      37.3110    1406.33129      49.0524      37.6620
   1421.94104      50.8638      36.9838    1406.31604      49.2900      38.0098
   1421.92578      50.7325      36.8719    1406.30078      49.5170      37.9612
   1421.91052      51.7779      37.0809    1406.28552      49.8614      37.9217
   1421.89526      51.8081      36.9836    1406.27026      49.3549      39.0159
   1421.88000      51.3212      36.8053    1406.25500      49.6635      38.7378
   1421.86474      50.8342      36.6270    1406.23974      49.9722      38.4597
   1421.84948      51.6831      36.9381    1406.22448      49.7495      38.4343
   1421.83422      51.2989      36.6982    1406.20922      49.3612      37.7787
   1421.81896      50.9830      36.6736    1406.19396      49.7617      38.4028
   1421.80371      51.5392      36.8472    1406.17871      49.7963      37.9622
   1421.78845      51.0786      36.5511    1406.16345      49.9477      38.0067
   1421.77319      50.9526      36.5800    1406.14819      49.6827      37.8681
   1421.75793      51.0985      36.5511    1406.13293      49.2259      38.1265
   1421.74267      51.6010      36.5126    1406.11767      49.9821      37.9177
   1421.72741      51.5506      36.6452    1406.10241      50.0267      38.2919
   1421.71215      50.8334      36.3915    1406.08715      49.7822      38.1755
   1421.69689      51.3193      36.5450    1406.07189      49.8410      38.2634
   1421.68164      51.3301      36.5246    1406.05664      49.8791      38.8399
   1421.66638      50.9146      36.6284    1406.04138      50.0909      38.6250
   1421.65112      51.6170      36.6867    1406.02612      49.9115      38.7312
   1421.63586      51.5363      36.4585    1406.01086      50.4244      38.6815
   1421.62060      51.3836      36.3744    1405.99560      50.0718      38.6027
   1421.60534      50.8034      36.7544    1405.98034      49.9396      38.8512
   1421.59008      51.1527      36.4518    1405.96508      50.1662      38.6442
   1421.57482      51.2068      36.3544    1405.94982      50.2772      38.8703
   1421.55957      51.1814      36.1422    1405.93457      50.2590      38.4310
   1421.54431      51.0601      36.6470    1405.91931      50.4567      38.8676
   1421.52905      51.6563      36.1895    1405.90405      49.7485      38.8142
   1421.51379      51.2373      36.0196    1405.88879      49.9638      38.9478
   1421.49853      51.3476      36.4729    1405.87353      50.2858      38.9901
   1421.48327      51.3166      36.3054    1405.85827      50.6350      39.0214
   1421.46801      51.5615      36.4698    1405.84301      50.5947      38.9542
   1421.45275      51.3304      36.2213    1405.82775      50.5556      38.6523
   1421.43750      51.1869      36.2149    1405.81250      50.5997      38.9996
   1421.42224      50.9672      36.2481    1405.79724      51.0198      38.8075
   1421.40698      51.6890      36.1761    1405.78198      50.5632      39.2109
   1421.39172      51.9150      36.4495    1405.76672      50.5477      39.2609
   1421.37646      51.3469      36.6652    1405.75146      50.8188      39.3915
   1421.36120      51.6016      36.1665    1405.73620      50.6217      39.5326
   1421.34594      51.4721      36.3456    1405.72094      50.1409      39.4255
   1421.33068      51.7927      36.3753    1405.70568      50.1151      39.3001
   1421.31542      51.8999      36.4776    1405.69042      50.0630      39.1554
   1421.30017      51.8704      35.8053    1405.67517      50.3507      38.9862
   1421.28491      51.3285      36.1909    1405.65991      50.1224      39.7479
   1421.26965      51.2815      36.4117    1405.64465      50.2906      39.4526
   1421.25439      51.8607      36.5109    1405.62939      50.6277      39.5588
   1421.23913      51.8579      36.1749    1405.61413      50.5936      40.0899
   1421.22387      51.5496      36.3209    1405.59887      50.3159      39.7771
   1421.20861      52.1329      36.9960    1405.58361      50.6311      39.4286
   1421.19335      51.5916      36.2184    1405.56835      50.9683      39.8152
   1421.17810      51.8887      36.1462    1405.55310      50.3918      40.1957
   1421.16284      51.7535      35.9628    1405.53784      50.4248      39.6074
   1421.14758      51.8292      36.3816    1405.52258      50.5660      40.2805
   1421.13232      51.4608      36.1581    1405.50732      50.6846      40.3485
   1421.11706      52.3933      35.9472    1405.49206      50.5356      40.2194
   1421.10180      52.0795      36.2329    1405.47680      50.1859      39.8591
   1421.08654      51.7588      36.1918    1405.46154      50.8414      40.0678
   1421.07128      51.5967      36.5632    1405.44628      50.2163      40.6189
   1421.05603      52.1047      36.5152    1405.43103      50.8955      40.2847
   1421.04077      52.5239      36.4145    1405.41577      50.6057      40.3470
   1421.02551      52.1443      36.7046    1405.40051      50.4795      40.5379
   1421.01025      52.2430      36.4913    1405.38525      50.4077      40.7943
   1420.99499      52.8272      36.3907    1405.36999      50.5031      40.8046
   1420.97973      53.0294      37.2728    1405.35473      50.4117      40.9197
   1420.96447      52.8748      37.2279    1405.33947      50.3088      40.4451
   1420.94921      53.3483      37.3269    1405.32421      50.3453      40.4937
   1420.93396      53.3867      37.3850    1405.30896      50.5572      41.1904
   1420.91870      54.2425      38.0023    1405.29370      50.6904      40.8901
   1420.90344      54.7165      38.1286    1405.27844      50.2419      40.8750
   1420.88818      55.7876      38.5739    1405.26318      50.6838      40.8097
   1420.87292      57.2366      39.7469    1405.24792      50.2547      40.8650
   1420.85766      60.0516      41.2406    1405.23266      50.4977      41.0952
   1420.84240      63.2536      43.2251    1405.21740      50.5124      41.5868
   1420.82714      68.1521      46.5038    1405.20214      50.7139      41.4672
   1420.81188      74.2416      50.3433    1405.18688      50.7072      41.5214
   1420.79663      82.7153      56.1089    1405.17163      50.1816      41.5991
   1420.78137      92.9896      62.9931    1405.15637      50.3955      41.7447
   1420.76611      93.5652      62.9978    1405.14111      50.0560      41.6061
   1420.75085      89.5665      61.0267    1405.12585      50.1898      41.7443
   1420.73559      95.1534      62.7614    1405.11059      50.1707      42.0774
   1420.72033     104.8275      69.9352    1405.09533      50.5856      41.8147
   1420.70507     112.1739      74.8500    1405.08007      49.9051      42.1799
   1420.68981     109.7709      72.9168    1405.06481      50.2114      41.8123
   1420.67456      99.0622      66.6626    1405.04956      50.2772      42.3803
   1420.65930      86.5017      58.4996    1405.03430      50.1041      42.1846
   1420.64404      79.4405      53.4432    1405.01904      50.4343      42.6497
   1420.62878      74.1706      50.8894    1405.00378      50.1839      42.2462
   1420.61352      70.4487      48.7374    1404.98852      50.0064      42.8495
   1420.59826      73.0092      50.2079    1404.97326      50.0598      41.9311
   1420.58300      79.5563      54.2979    1404.95800      49.9756      42.7115
   1420.56774      88.6087      59.7378    1404.94274      50.1491      42.8536
   1420.55249     106.7689      71.4052    1404.92749      50.0527      42.3114
   1420.53723     125.2487      83.5026    1404.91223      50.0521      42.8978
   1420.52197     135.4096      91.2163    1404.89697      50.3838      42.8799
   1420.50671     134.0228      89.0818    1404.88171      50.3182      43.2521
   1420.49145     136.1998      91.3134    1404.86645      49.7490      43.1180
   1420.47619     134.7287      90.4172    1404.85119      49.9209      43.1119
   1420.46093     137.0769      92.6579    1404.83593      49.2959      43.2818
   1420.44567     143.6835      95.8107    1404.82067      50.0040      43.2756
   1420.43042     149.5991     100.7971    1404.80542      49.9770      43.2382
   1420.41516     153.2440     101.2545    1404.79016      50.1290      43.3931
   1420.39990     153.6285     102.3752    1404.77490      49.8620      43.8342
   1420.38464     153.4242     102.1732    1404.75964      49.8018      43.8605
   1420.36938     151.1829     102.5059    1404.74438      49.7783      43.9721
   1420.35412     148.9439      99.8866    1404.72912      49.7132      43.8564
   1420.33886     142.2363      94.8301    1404.71386      49.1869      43.9462
   1420.32360     136.0979      90.2709    1404.69860      49.7161      43.5472
   1420.30834     140.0510      95.1020    1404.68334      50.0823      44.3631
   1420.29309     153.0256     102.4191    1404.66809      49.7719      44.4174
   1420.27783     164.0367     110.3642    1404.65283      49.5058      44.1872
   1420.26257     169.9660     113.2853    1404.63757      49.7273      44.1830
   1420.24731     167.5159     111.8822    1404.62231      49.8392      44.4745
   1420.23205     161.6290     108.6860    1404.60705      49.8291      44.5823
   1420.21679     156.0942     104.6857    1404.59179      49.9003      44.6923
   1420.20153     150.7471     101.0299    1404.57653      49.4831      44.5416
   1420.18627     139.8841      93.5847    1404.56127      49.5141      44.9764
   1420.17102     124.9590      85.3254    1404.54602      49.7855      44.7530
   1420.15576     107.4336      73.2053    1404.53076      49.4555      45.1077
   1420.14050      86.8166      59.8692    1404.51550      49.5805      45.0565
   1420.12524      71.8064      50.0961    1404.50024      49.2509      45.4292
   1420.10998      63.6196      44.5224    1404.48498      49.3966      45.7413
   1420.09472      58.8462      41.5490    1404.46972      49.3470      45.3514
   1420.07946      55.9479      40.4112    1404.45446      49.2297      45.3428
   1420.06420      54.8610      39.3093    1404.43920      49.0584      45.3969
   1420.04895      54.2024      39.1075    1404.42395      49.2881      45.9111
   1420.03369      53.5297      38.7859    1404.40869      48.5723      45.7342
   1420.01843      52.7220      38.3889    1404.39343      48.9022      46.3950
   1420.00317      52.6154      38.2434    1404.37817      49.4848      46.2844
   1419.98791      52.7108      38.1489    1404.36291      49.1856      46.1048
   1419.97265      52.8316      38.1493    1404.34765      48.8369      46.4126
   1419.95739      52.5804      37.8833    1404.33239      48.7445      46.5678
   1419.94213      52.7203      37.8321    1404.31713      48.6793      46.5978
   1419.92687      52.7857      38.3959    1404.30187      48.8652      46.3827
   1419.91162      52.1638      38.2589    1404.28662      48.8133      46.5966
   1419.89636      52.9398      38.1947    1404.27136      48.5768      47.2885
   1419.88110      52.0251      38.1427    1404.25610      49.1284      46.8352
   1419.86584      52.5046      38.3667    1404.24084      48.2495      47.4120
   1419.85058      51.9440      38.3331    1404.22558      48.6273      46.8859
   1419.83532      52.5398      38.1786    1404.21032      48.4852      47.1575
   1419.82006      51.6932      38.1999    1404.19506      48.5072      47.0508
   1419.80480      52.2099      38.0961    1404.17980      49.0985      47.3808
   1419.78955      52.1729      38.0805    1404.16455      48.6430      47.7484
   1419.77429      51.9296      38.3205    1404.14929      48.3530      47.7469
   1419.75903      52.5569      38.4607    1404.13403      48.6058      47.6040
   1419.74377      52.0987      38.3162    1404.11877      48.6790      47.8150
   1419.72851      52.4982      38.5875    1404.10351      48.4386      48.3441
   1419.71325      51.7274      38.6336    1404.08825      48.6976      48.1688
   1419.69799      51.6291      38.3783    1404.07299      48.2134      48.1197
   1419.68273      51.9477      38.6705    1404.05773      48.7105      48.3101
   1419.66748      52.0697      38.7253    1404.04248      48.2331      48.1774
   1419.65222      52.0155      38.8624    1404.02722      48.3271      48.7929
   1419.63696      52.4904      38.9252    1404.01196      48.4048      48.1284
   1419.62170      52.0192      38.7293    1403.99670      48.6335      48.8441
   1419.60644      51.7836      39.0300    1403.98144      48.3944      49.0922
   1419.59118      52.2039      39.0630    1403.96618      47.9966      48.7903
   1419.57592      51.8847      38.8281    1403.95092      48.3074      49.0240
   1419.56066      52.2521      39.0688    1403.93566      48.0125      49.0414
   1419.54541      51.6474      39.3008    1403.92041      48.0199      49.2184
   1419.53015      52.0361      38.9413    1403.90515      47.7518      49.3775
   1419.51489      52.2474      39.2463    1403.88989      47.9521      50.1293
   1419.49963      51.9384      39.3237    1403.87463      48.3560      49.7347
   1419.48437      51.6954      39.1052    1403.85937      47.8666      49.6034
   1419.46911      51.8004      39.1367    1403.84411      48.1438      49.7592
   1419.45385      51.6645      39.5000    1403.82885      47.8585      49.6673
   1419.43859      51.6905      39.5062    1403.81359      47.7435      50.2848
   1419.42333      52.0288      39.6205    1403.79833      47.6936      50.0676
   1419.40808      51.5594      39.4215    1403.78308      47.9615      50.3962
   1419.39282      51.4825      39.4555    1403.76782      47.7617      50.1879
   1419.37756      52.2745      39.3076    1403.75256      47.6335      50.4891
   1419.36230      51.4630      39.8203    1403.73730      47.9879      50.9776
   1419.34704      51.9634      39.3256    1403.72204      47.8446      50.6888
   1419.33178      51.2900      39.8293    1403.70678      47.7660      50.8830
   1419.31652      51.6748      39.3590    1403.69152      47.8611      51.6862
   1419.30126      51.7655      40.0715    1403.67626      47.5557      51.3945
   1419.28601      52.0252      40.2228    1403.66101      47.4663      51.3641
   1419.27075      51.7311      40.0365    1403.64575      47.4434      51.2541
   1419.25549      51.8006      40.2006    1403.63049      47.5812      52.2457
   1419.24023      51.1870      39.7110    1403.61523      47.0019      52.3162
   1419.22497      52.2785      40.1809    1403.59997      47.3110      51.9347
   1419.20971      51.6326      40.4221    1403.58471      47.6008      52.5301
   1419.19445      51.3578      40.3533    1403.56945      47.5647      52.6312
   1419.17919      51.6351      40.6629    1403.55419      47.4434      53.0389
   1419.16394      51.1381      40.2473    1403.53894      47.4971      52.4433
   1419.14868      51.7114      40.7276    1403.52368      47.2985      52.2641
   1419.13342      51.5435      40.5774    1403.50842      46.9547      52.8070
   1419.11816      51.0433      40.7809    1403.49316      47.3409      53.2336
   1419.10290      51.6471      40.4606    1403.47790      47.3499      52.8089
   1419.08764      51.4376      40.9966    1403.46264      47.2996      53.4667
   1419.07238      51.8094      40.9670    1403.44738      47.1609      52.9131
   1419.05712      51.5734      40.8441    1403.43212      47.2391      53.6824
   1419.04187      51.1145      41.0942    1403.41687      47.1730      53.7004
   1419.02661      51.6539      41.1222    1403.40161      47.0602      53.7567
   1419.01135      51.3135      41.0051    1403.38635      47.3837      53.8123
   1418.99609      51.1180      41.0207    1403.37109      47.3346      54.7398
   1418.98083      50.9683      40.7229    1403.35583      47.1753      54.0524
   1418.96557      50.9748      41.4320    1403.34057      47.1709      54.6356
   1418.95031      51.0676      41.3404    1403.32531      47.1160      54.9339
   1418.93505      51.4625      41.1796    1403.31005      47.7644      55.1882
   1418.91979      50.9970      41.6597    1403.29479      47.3715      54.5531
   1418.90454      51.4240      41.3661    1403.27954      47.5301      55.1027
   1418.88928      51.1797      41.9846    1403.26428      47.3398      55.4976
   1418.87402      50.8204      41.8606    1403.24902      47.1987      55.8395
   1418.85876      51.7348      41.4892    1403.23376      46.8542      55.2113
   1418.84350      51.3277      42.1263    1403.21850      47.1492      55.3184
   1418.82824      51.1599      41.8620    1403.20324      46.9084      55.8987
   1418.81298      51.6525      41.5674    1403.18798      47.1209      56.0875
   1418.79772      51.1308      41.9438    1403.17272      47.0074      56.3026
   1418.78247      50.8590      42.4200    1403.15747      47.1201      55.8351
   1418.76721      50.9874      42.4043    1403.14221      47.4424      56.4307
   1418.75195      51.0383      42.7454    1403.12695      47.2538      56.1812
   1418.73669      51.1120      42.5775    1403.11169      47.0869      57.0490
   1418.72143      51.3969      42.3467    1403.09643      47.1745      56.4910
   1418.70617      51.0001      42.6042    1403.08117      47.1914      57.1753
   1418.69091      50.8437      42.2963    1403.06591      47.0331      57.2184
   1418.67565      50.9342      42.5804    1403.05065      46.7132      56.7870
   1418.66040      50.8905      42.5889    1403.03540      47.1302      57.2421
   1418.64514      50.9319      42.4928    1403.02014      47.5242      57.6426
   1418.62988      50.9477      43.2155    1403.00488      46.6463      57.7817
   1418.61462      51.1109      42.7373    1402.98962      46.7677      58.3985
   1418.59936      50.0416      43.2534    1402.97436      47.3031      57.7473
   1418.58410      51.2617      43.5662    1402.95910      47.2628      58.2390
   1418.56884      51.0857      43.3104    1402.94384      47.3617      58.2148
   1418.55358      50.8274      43.7126    1402.92858      47.4882      58.4623
   1418.53833      51.2579      43.2452    1402.91333      47.2955      58.9634
   1418.52307      50.9470      43.6324    1402.89807      46.7254      58.9059
   1418.50781      50.9685      43.4542    1402.88281      46.8755      59.2781
   1418.49255      50.4542      43.2550    1402.86755      46.7986      59.2945
   1418.47729      51.0875      43.8385    1402.85229      46.4680      59.0486
   1418.46203      50.7418      43.7338    1402.83703      47.1993      59.0337
   1418.44677      50.9429      44.0300    1402.82177      47.0900      59.6378
   1418.43151      50.8867      44.3288    1402.80651      47.1004      59.9606
   1418.41625      51.0428      44.1253    1402.79125      47.7234      60.3086
   1418.40100      50.7975      44.7277    1402.77600      46.6702      60.2036
   1418.38574      50.1513      44.3300    1402.76074      46.6716      59.8881
   1418.37048      51.0149      44.2825    1402.74548      47.4575      60.2639
   1418.35522      50.9157      44.4625    1402.73022      47.1831      60.1087
   1418.33996      51.1963      44.3867    1402.71496      47.1343      60.6053
   1418.32470      50.8407      44.9304    1402.69970      47.3310      60.7569
   1418.30944      50.8650      44.5525    1402.68444      47.4330      61.2127
   1418.29418      50.7580      44.2245    1402.66918      47.3143      61.3888
   1418.27893      50.9963      45.0227    1402.65393      47.4993      61.0713
   1418.26367      50.6361      44.9799    1402.63867      47.2695      61.4910
   1418.24841      50.4455      45.0033    1402.62341      47.2634      61.8611
   1418.23315      51.1047      44.7878    1402.60815      47.2233      61.6469
   1418.21789      50.6281      45.3920    1402.59289      46.9995      61.2813
   1418.20263      51.0860      45.6071    1402.57763      47.2152      62.2574
   1418.18737      50.5365      45.4361    1402.56237      47.4268      61.8721
   1418.17211      50.3025      45.3833    1402.54711      47.2834      62.4461
   1418.15686      50.3228      45.9426    1402.53186      46.9846      61.9825
   1418.14160      50.3249      45.4846    1402.51660      47.2566      63.4481
   1418.12634      50.6968      46.0175    1402.50134      47.5882      62.5748
   1418.11108      50.5522      45.8820    1402.48608      47.4737      63.2567
   1418.09582      50.4595      46.2617    1402.47082      47.8138      63.4851
   1418.08056      50.0525      45.8582    1402.45556      47.6823      63.4270
   1418.06530      50.4451      45.9613    1402.44030      47.9145      64.1161
   1418.05004      50.5630      45.7492    1402.42504      47.8777      63.9397
   1418.03479      50.3520      46.5207    1402.40979      48.1379      63.9769
   1418.01953      50.5659      46.3753    1402.39453      47.8032      64.3421
   1418.00427      50.5909      46.5665    1402.37927      48.0071      64.2547
   1417.98901      49.9361      46.4461    1402.36401      47.5832      63.7622
   1417.97375      50.5166      46.6515    1402.34875      47.6268      64.6390
   1417.95849      49.9174      46.7882    1402.33349      47.8612      64.9446
   1417.94323      50.3742      46.8663    1402.31823      47.7983      64.5179
   1417.92797      50.3964      47.0495    1402.30297      48.2264      65.2873
   1417.91271      50.7789      47.4776    1402.28771      47.7790      65.5451
   1417.89746      50.5698      46.8130    1402.27246      47.6160      65.4837
   1417.88220      50.6303      46.9992    1402.25720      47.9943      65.4802
   1417.86694      50.0358      47.3357    1402.24194      47.7919      65.8147
   1417.85168      50.2704      47.6400    1402.22668      48.2435      65.7770
   1417.83642      50.3397      47.6489    1402.21142      48.1335      66.3221
   1417.82116      50.2376      47.7279    1402.19616      48.2208      65.7543
   1417.80590      50.2479      47.9240    1402.18090      48.1889      65.9142
   1417.79064      49.9506      48.0149    1402.16564      47.5789      66.9297
   1417.77539      50.3874      47.7521    1402.15039      47.9617      66.4906
   1417.76013      50.6181      48.2076    1402.13513      47.9560      66.5693
   1417.74487      50.4608      48.1146    1402.11987      48.0398      66.5930
   1417.72961      50.8679      48.4268    1402.10461      48.2839      67.1792
   1417.71435      50.1353      48.2893    1402.08935      48.0253      67.4887
   1417.69909      50.2652      48.6287    1402.07409      48.3351      67.3374
   1417.68383      50.1928      48.7839    1402.05883      48.0611      67.1780
   1417.66857      50.6221      48.6044    1402.04357      48.4078      67.8571
   1417.65332      50.1912      48.9400    1402.02832      48.1591      67.9489
   1417.63806      50.6944      48.5878    1402.01306      48.6696      68.2002
   1417.62280      50.6095      49.1202    1401.99780      48.5404      68.3882
   1417.60754      50.3222      48.7553    1401.98254      48.7781      68.1769
   1417.59228      50.7813      49.1708    1401.96728      48.5943      68.8768
   1417.57702      50.7645      48.8071    1401.95202      48.7424      68.7081
   1417.56176      49.8444      48.9925    1401.93676      48.1582      67.7344
   1417.54650      50.0047      49.6764    1401.92150      48.7863      68.4754
   1417.53125      50.2625      49.6396    1401.90625      48.7858      69.2723
   1417.51599      50.3643      49.2885    1401.89099      48.8096      68.9531
   1417.50073      49.8311      49.9105    1401.87573      48.6676      69.9112
   1417.48547      50.2117      49.7696    1401.86047      48.7693      69.5434
   1417.47021      50.1811      49.5871    1401.84521      48.9442      69.3026
   1417.45495      49.7319      50.0692    1401.82995      49.1541      69.7385
   1417.43969      50.2094      50.1146    1401.81469      48.4747      70.2095
   1417.42443      49.9566      50.1234    1401.79943      48.6678      70.5919
   1417.40917      50.2147      50.1915    1401.78417      48.0866      70.2892
   1417.39392      50.1032      50.5344    1401.76892      48.4915      70.5182
   1417.37866      49.9904      49.9276    1401.75366      49.0412      70.6331
   1417.36340      49.8898      50.7181    1401.73840      48.3522      69.9047
   1417.34814      50.1546      50.3897    1401.72314      48.9964      69.9979
   1417.33288      50.4742      50.9302    1401.70788      48.6870      71.0844
   1417.31762      50.0253      50.7210    1401.69262      48.7822      70.4809
   1417.30236      50.1121      50.7269    1401.67736      48.6418      71.2919
   1417.28710      49.9492      50.8265    1401.66210      48.5895      71.5426
   1417.27185      50.0663      51.0227    1401.64685      48.7123      71.3753
   1417.25659      50.3942      51.2422    1401.63159      48.5886      71.9281
   1417.24133      49.8335      51.1214    1401.61633      48.7686      70.6870
   1417.22607      49.7074      51.7104    1401.60107      48.7219      70.8023
   1417.21081      50.0083      51.5440    1401.58581      48.9396      72.3817
   1417.19555      50.1033      51.1822    1401.57055      49.5173      72.0695
   1417.18029      50.1801      51.4697    1401.55529      48.3768      72.8852
   1417.16503      50.4354      51.3224    1401.54003      48.5439      71.8715
   1417.14978      49.6449      51.5788    1401.52478      48.7283      72.6352
   1417.13452      49.9335      51.6186    1401.50952      48.4203      71.6031
   1417.11926      49.9322      52.1633    1401.49426      48.7410      72.1717
   1417.10400      49.8337      51.3768    1401.47900      48.7572      72.9281
   1417.08874      49.9131      51.8540    1401.46374      48.7659      72.7641
   1417.07348      50.0989      51.7169    1401.44848      48.9517      72.8066
   1417.05822      49.9051      52.0963    1401.43322      49.0743      72.3009
   1417.04296      49.5997      52.4209    1401.41796      48.3767      72.6057
   1417.02771      49.8609      52.5076    1401.40271      49.3036      72.4353
   1417.01245      49.3832      51.7468    1401.38745      48.5393      73.3612
   1416.99719      49.6065      51.9925    1401.37219      48.7022      72.2461
   1416.98193      49.6965      52.5083    1401.35693      48.6671      72.9926
   1416.96667      49.8116      52.6296    1401.34167      48.9114      73.5750
   1416.95141      49.7239      52.5868    1401.32641      48.7287      73.3997
   1416.93615      49.5009      52.5168    1401.31115      48.8967      73.2315
   1416.92089      49.7080      52.5526    1401.29589      48.6417      73.7840
   1416.90563      49.6218      52.6344    1401.28063      49.0061      73.2384
   1416.89038      49.2912      52.6577    1401.26538      48.4991      72.7686
   1416.87512      49.6678      52.8519    1401.25012      48.6754      73.5590
   1416.85986      49.5981      53.1460    1401.23486      48.7630      73.7136
   1416.84460      49.6480      52.7173    1401.21960      48.0638      74.3541
   1416.82934      49.1668      52.8610    1401.20434      48.0516      73.4437
   1416.81408      49.4210      53.0552    1401.18908      48.3875      73.8534
   1416.79882      48.6887      53.2163    1401.17382      48.6888      73.2753
   1416.78356      49.0504      52.3150    1401.15856      48.3224      73.9760
   1416.76831      49.2436      53.0462    1401.14331      48.6755      73.8785
   1416.75305      48.6216      53.6740    1401.12805      48.3052      73.7349
   1416.73779      48.7892      52.9359    1401.11279      48.4168      73.8799
   1416.72253      49.2344      52.9644    1401.09753      47.9658      73.8249
   1416.70727      49.0885      53.3819    1401.08227      48.4449      73.4366
   1416.69201      48.5460      52.3933    1401.06701      47.9597      73.5100
   1416.67675      48.8271      53.2441    1401.05175      48.0536      73.6627
   1416.66149      48.4951      53.3581    1401.03649      47.8113      74.2539
   1416.64624      48.2567      53.2039    1401.02124      47.8768      73.7436
   1416.63098      48.8102      53.4666    1401.00598      47.9221      73.8912
   1416.61572      48.5728      53.0523    1400.99072      47.6212      74.2266
   1416.60046      48.0858      52.8834    1400.97546      47.7135      73.9757
   1416.58520      48.7297      53.2434    1400.96020      47.3787      72.8338
   1416.56994      48.6517      53.3172    1400.94494      47.4946      73.9531
   1416.55468      47.8698      53.8287    1400.92968      47.4205      74.1775
   1416.53942      48.2458      52.6930    1400.91442      47.2070      73.2038
   1416.52417      48.5355      53.1306    1400.89917      46.6945      73.2945
   1416.50891      48.1157      52.8107    1400.88391      47.2364      74.2978
   1416.49365      48.0574      53.4090    1400.86865      46.8642      73.8000
   1416.47839      48.6157      53.2574    1400.85339      46.8649      73.6838
   1416.46313      47.8966      53.0547    1400.83813      46.7988      73.9198
   1416.44787      47.8711      53.0896    1400.82287      47.1642      73.5804
   1416.43261      47.7323      53.6375    1400.80761      46.3609      73.1414
   1416.41735      47.7432      53.1098    1400.79235      46.6672      73.3515
   1416.40209      47.8368      52.8595    1400.77709      46.6766      73.1181
   1416.38684      47.2956      52.8191    1400.76184      46.4213      73.7208
   1416.37158      47.5368      53.0544    1400.74658      46.6103      72.8098
   1416.35632      46.8149      53.0775    1400.73132      46.2637      72.8261
   1416.34106      47.1535      53.3685    1400.71606      46.2266      72.4827
   1416.32580      47.2994      53.1618    1400.70080      45.8961      72.5520
   1416.31054      47.6142      52.2857    1400.68554      46.1263      72.5537
   1416.29528      47.1246      52.7570    1400.67028      46.0373      72.1622
   1416.28002      47.0415      53.1080    1400.65502      45.5444      72.0083
   1416.26477      47.1683      52.8911    1400.63977      45.7011      72.3446
   1416.24951      47.2294      52.7585    1400.62451      45.7290      71.6726
   1416.23425      46.4661      52.8822    1400.60925      45.5299      71.9290
   1416.21899      46.5656      52.5320    1400.59399      45.2430      71.4239
   1416.20373      46.2600      52.6947    1400.57873      44.8219      72.3086
   1416.18847      46.6087      52.6035    1400.56347      44.7349      71.6501
   1416.17321      46.3421      52.5016    1400.54821      44.4653      71.0262
   1416.15795      46.0751      52.5212    1400.53295      44.4430      71.9369
   1416.14270      46.1632      52.5392    1400.51770      44.4456      71.3647
   1416.12744      45.7402      52.1450    1400.50244      44.5408      70.8765
   1416.11218      45.8632      51.9568    1400.48718      44.0929      70.6545
   1416.09692      45.0393      51.9143    1400.47192      43.5445      71.1260
   1416.08166      45.6247      51.7733    1400.45666      43.7691      70.3718
   1416.06640      45.2269      52.0908    1400.44140      43.7279      70.4190
   1416.05114      45.5693      51.7129    1400.42614      43.0251      69.9165
   1416.03588      45.3486      51.5181    1400.41088      43.4536      70.3885
   1416.02062      44.7384      51.8415    1400.39562      43.3345      69.8223
   1416.00537      44.9157      51.4941    1400.38037      42.8487      69.9229
   1415.99011      45.0511      51.7276    1400.36511      42.7747      69.3538
   1415.97485      44.4646      51.1051    1400.34985      42.4791      69.2249
   1415.95959      44.8256      51.4639    1400.33459      42.4250      69.2331
   1415.94433      44.1932      50.6500    1400.31933      42.2277      68.8430
   1415.92907      44.0693      51.1080    1400.30407      41.9956      68.5382
   1415.91381      43.9700      50.9758    1400.28881      41.7557      68.3767
   1415.89855      44.1864      50.7971    1400.27355      41.9571      69.0351
   1415.88330      43.7492      50.8211    1400.25830      41.7644      68.3999
   1415.86804      43.5947      50.6448    1400.24304      41.3019      67.7597
   1415.85278      43.5981      50.3392    1400.22778      41.4968      66.7887
   1415.83752      43.6368      50.4568    1400.21252      41.2211      67.5866
   1415.82226      43.5094      49.8499    1400.19726      41.1562      67.6835
   1415.80700      43.2552      49.9860    1400.18200      41.0148      67.1316
   1415.79174      42.5850      49.7064    1400.16674      40.6384      66.8695
   1415.77648      42.4658      49.8529    1400.15148      40.2132      66.1710
   1415.76123      42.7444      49.6303    1400.13623      40.0613      66.0504
   1415.74597      42.7265      49.2828    1400.12097      40.1250      65.6035
   1415.73071      42.1909      48.8043    1400.10571      39.6773      66.0365
   1415.71545      42.4559      48.9379    1400.09045      39.7777      65.2168
   1415.70019      42.2399      48.5654    1400.07519      39.2002      65.0764
   1415.68493      42.0709      48.5629    1400.05993      39.4780      64.9522
   1415.66967      41.7401      48.0706    1400.04467      39.1592      64.2855
   1415.65441      41.4307      48.7382    1400.02941      38.9949      64.2502
   1415.63916      41.0885      48.7916    1400.01416      38.8865      63.9778
   1415.62390      41.0793      48.1598    1399.99890      38.3539      63.7397
   1415.60864      41.0340      47.6903    1399.98364      38.4424      62.8605
   1415.59338      40.7621      47.9332    1399.96838      38.1425      63.2837
   1415.57812      40.7604      47.1936    1399.95312      37.7689      63.6330
   1415.56286      40.5551      47.1144    1399.93786      37.6720      62.6254
   1415.54760      40.2913      47.4978    1399.92260      37.2542      62.8758
   1415.53234      40.2448      47.3903    1399.90734      37.1383      61.3039
   1415.51708      39.9322      46.4280    1399.89208      36.9179      61.5409
   1415.50183      39.6613      46.8234    1399.87683      36.9566      61.3632
   1415.48657      39.3497      46.0979    1399.86157      36.5316      61.2103
   1415.47131      39.4256      46.2333    1399.84631      36.4688      61.1419
   1415.45605      39.1041      45.6553    1399.83105      35.9500      60.1196
   1415.44079      38.9240      45.3120    1399.81579      35.8933      59.8056
   1415.42553      38.5077      45.7837    1399.80053      35.8394      60.6656
   1415.41027      38.3957      45.2684    1399.78527      35.7160      59.5698
   1415.39501      37.8609      44.9210    1399.77001      35.4375      59.1733
   1415.37976      38.0624      44.6938    1399.75476      34.9969      58.6151
   1415.36450      38.2080      44.5906    1399.73950      34.7485      58.5670
   1415.34924      37.9377      44.1160    1399.72424      34.5577      58.1338
   1415.33398      37.6011      44.3575    1399.70898      34.4835      58.3598
   1415.31872      37.5896      44.3018    1399.69372      34.0467      56.9866
   1415.30346      37.3150      43.9506    1399.67846      33.8177      57.2575
   1415.28820      37.2424      43.7967    1399.66320      33.8710      56.9953
   1415.27294      36.8204      43.6599    1399.64794      33.5030      56.7591
   1415.25769      36.4632      43.3523    1399.63269      33.0349      56.1647
   1415.24243      36.5428      43.2964    1399.61743      33.0486      55.9758
   1415.22717      35.8960      42.7478    1399.60217      33.2432      56.1557
   1415.21191      35.8380      42.7161    1399.58691      32.7468      55.3181
   1415.19665      35.6851      42.2634    1399.57165      32.2580      55.2216
   1415.18139      35.4630      42.1662    1399.55639      32.1488      55.1648
   1415.16613      35.4205      41.9380    1399.54113      32.4889      54.3329
   1415.15087      35.2770      41.1428    1399.52587      32.1776      53.8916
   1415.13562      34.9861      41.2592    1399.51062      31.7012      53.3107
   1415.12036      35.1747      41.2531    1399.49536      31.6086      53.2243
   1415.10510      34.5091      41.1969    1399.48010      31.0100      53.2396
   1415.08984      34.5084      40.6534    1399.46484      30.7396      52.5558
   1415.07458      34.1849      40.4446    1399.44958      30.9282      51.9851
   1415.05932      33.9258      40.2349    1399.43432      30.5990      51.9638
   1415.04406      33.5609      39.8042    1399.41906      30.3817      51.5640
   1415.02880      33.2535      40.2337    1399.40380      30.2635      51.9340
   1415.01354      33.1514      39.6871    1399.38854      30.1358      50.8113
   1414.99829      33.0251      39.1662    1399.37329      30.0007      51.0683
   1414.98303      32.9613      39.1118    1399.35803      29.6816      50.7016
   1414.96777      32.2958      38.8413    1399.34277      29.5930      50.1280
   1414.95251      32.2701      38.1264    1399.32751      29.3743      49.3778
   1414.93725      32.1795      37.7274    1399.31225      29.2520      48.9764
   1414.92199      32.2814      38.0863    1399.29699      28.6385      49.1017
   1414.90673      31.9691      37.7935    1399.28173      28.6591      48.5225
   1414.89147      31.3912      37.5950    1399.26647      28.3281      48.0790
   1414.87622      31.7298      37.3979    1399.25122      28.1710      47.5690
