#     FILENAME=Skynet_59007_gl56_45085_54669.A.spect.cal.txt
#     BASENAME=Skynet_59007_gl56_45085_54669
#      CONTROL=SKYNET
#     PROJCODE=Skynet_59007_gl56_45085
#     DATAROOT=/raid/scratch/cyborg/SkynetData
#      DATADIR=/raid/scratch/cyborg
#     DATADIR2=/raid/scratch/cyborg/SkynetData/Skynet_59007_gl56_45085/Cyborg
#     SCANNAME=2018_05_24_20
#     SRC_NAME=gl56
#     OBSERVER=reichart_2118
#     DATE_OBS=2020-06-07T04:31:49.510
#        OBSID=45085
#      SCANNUM=54669
#          MJD=59007.1887675
#          UTC=16310
#     SCANTYPE=track
#     DATAMODE=HIRES
#     RECEIVER=Rx1_2
#      OBSFREQ=1395.0000
# Actual_FREQ1=1421.8800,
# Actual_FREQ2=1406.2550
#    LO1Tuning=6856.2600
#     RFFILTER=1355_1435
#        OBSBW=-15.6250
#     EFFBANDW=15.6250
#        NCHAN=1024
#    STARTCHAN=51
#     STOPCHAN=972
#         TINT=0.3000
#         TBIN=0.00013107
#       ACCLEN=2048 
#     DURATION=17.40
#     EXPOSURE=2.10
#        FOCUS=37.071
#       RA,DEC=19:35:39.65, 20:24:31.91
#      RA(deg)=293.83975
#     DEC(deg)=20.41015
#   WIDTH(deg)=0.0084x0.0024
#    AZIM(deg)=97.5630
#    ELEV(deg)=43.5089
#     COORDREF=LNG_LAT
#         HREF=56.0000
#         VREF=0.0000
#      RADESYS=FK5
#       OFFSYS=RADEC
#      EQUINOX=2000.00
#     IFATTENS=21.00, 5.00
#   BALANCELEV=1.200 
#   POWER_XLYR=[1.24, 1.25] 
#       VELDEF=RADI-OBS 
#     VELOCITY=0.000 
#         NPOL=2 
#      POLMODE=Linear 
#      POLTYPE=XXYY 
#      WARNING=None 
#     NOISECAL=HI 
#       PRECAL=2 
#      POSTCAL=2 
#     CRYOTEMP=15 
#      BOXTEMP=33 
#         TSYS=XX1:40.62, YY1:39.79
#         TSYS=XX2:37.04, YY2:43.96
#         TCAL=XX1:9.17, YY1:10.07
#         TCAL=XX2:9.16, YY2:9.99
# Calibrated spectra 
#                
#                
#Freq1(MHz)         XX1          YY1   Freq2(MHz)       XX2         YY2 
   1428.91430      20.4985      24.9173    1413.28930      20.8464      32.3168
   1428.89904      20.4324      25.3161    1413.27404      20.9496      32.3251
   1428.88378      20.5653      25.4742    1413.25878      21.1028      32.5303
   1428.86853      20.8481      25.3031    1413.24353      21.4329      32.5514
   1428.85327      20.7239      25.6916    1413.22827      21.5751      32.7770
   1428.83801      20.7364      25.6816    1413.21301      21.5674      32.8391
   1428.82275      20.6883      25.6902    1413.19775      21.6095      33.0877
   1428.80749      20.8502      25.9680    1413.18249      21.7515      33.4035
   1428.79223      20.8339      26.1042    1413.16723      21.8697      33.0949
   1428.77697      21.2414      26.2903    1413.15197      22.0632      33.6995
   1428.76171      21.2640      26.5353    1413.13671      22.0420      34.0088
   1428.74646      21.4836      26.9172    1413.12146      22.1810      34.4876
   1428.73120      21.3588      26.6590    1413.10620      22.1486      34.3818
   1428.71594      21.4753      26.9679    1413.09094      22.5145      34.4312
   1428.70068      21.6259      27.2504    1413.07568      22.5013      34.3972
   1428.68542      21.5533      27.1698    1413.06042      22.6643      34.8508
   1428.67016      22.0885      27.2345    1413.04516      22.6120      34.4301
   1428.65490      21.8212      27.6371    1413.02990      22.5501      35.0220
   1428.63964      22.1871      27.8113    1413.01464      22.9878      35.0149
   1428.62438      22.1340      27.9155    1412.99938      23.1731      35.4524
   1428.60913      22.3417      28.0773    1412.98413      22.9964      35.8751
   1428.59387      22.4386      28.2884    1412.96887      23.4521      35.5679
   1428.57861      22.4560      28.4062    1412.95361      23.3963      35.5705
   1428.56335      22.5212      28.5952    1412.93835      23.5883      36.1235
   1428.54809      22.8732      29.0358    1412.92309      23.7121      36.1268
   1428.53283      22.8310      28.8684    1412.90783      23.7020      36.4185
   1428.51757      22.9530      29.0350    1412.89257      23.6048      36.2691
   1428.50231      23.0141      29.3878    1412.87731      24.2585      36.6280
   1428.48706      23.1261      29.7368    1412.86206      24.0920      36.9623
   1428.47180      23.3620      30.1748    1412.84680      24.0930      37.5598
   1428.45654      23.5506      30.0591    1412.83154      24.4593      37.2511
   1428.44128      23.3846      30.3215    1412.81628      24.4723      37.2445
   1428.42602      23.5951      30.6185    1412.80102      24.6244      37.7500
   1428.41076      23.7200      30.8283    1412.78576      24.7024      38.2300
   1428.39550      23.8726      30.8794    1412.77050      24.8608      38.0727
   1428.38024      23.8849      31.2391    1412.75524      25.1086      38.3312
   1428.36499      24.0377      31.5846    1412.73999      25.2274      38.5057
   1428.34973      24.0118      31.4814    1412.72473      25.2194      38.9094
   1428.33447      24.4046      31.8825    1412.70947      25.5767      38.9738
   1428.31921      24.3099      32.0753    1412.69421      25.3113      38.9564
   1428.30395      24.7579      32.4177    1412.67895      25.1278      38.9612
   1428.28869      24.9686      32.6202    1412.66369      26.0777      39.3952
   1428.27343      24.8142      32.0309    1412.64843      25.8107      40.2830
   1428.25817      25.0811      33.1350    1412.63317      25.7908      39.7712
   1428.24292      24.9312      33.1032    1412.61792      26.1253      39.7040
   1428.22766      25.3735      33.2398    1412.60266      26.2546      40.0938
   1428.21240      25.3071      33.4366    1412.58740      26.2231      40.0524
   1428.19714      25.1073      33.3195    1412.57214      26.2094      40.6742
   1428.18188      25.6601      33.4943    1412.55688      26.4740      40.6761
   1428.16662      25.8831      34.3862    1412.54162      26.5324      40.6862
   1428.15136      25.8517      34.3634    1412.52636      26.5001      40.7860
   1428.13610      26.0907      34.6278    1412.51110      26.7494      41.5076
   1428.12084      26.0230      34.6737    1412.49584      26.8320      40.9476
   1428.10559      26.2172      35.0414    1412.48059      27.0933      41.3711
   1428.09033      26.3827      34.8631    1412.46533      26.9542      41.6838
   1428.07507      26.4470      35.0118    1412.45007      27.1392      42.0073
   1428.05981      26.5881      35.1166    1412.43481      27.0575      42.1157
   1428.04455      26.7435      35.6882    1412.41955      27.3177      42.3235
   1428.02929      26.8044      36.1578    1412.40429      27.7512      42.1770
   1428.01403      27.1508      36.3283    1412.38903      27.8888      42.4469
   1427.99877      26.7244      36.4585    1412.37377      27.9463      42.6910
   1427.98352      26.8035      36.2061    1412.35852      27.9332      43.2529
   1427.96826      27.5182      36.8802    1412.34326      27.8350      43.0424
   1427.95300      27.2414      36.8203    1412.32800      28.1051      43.1407
   1427.93774      27.3313      37.3212    1412.31274      28.3752      43.9432
   1427.92248      27.5449      37.1821    1412.29748      28.2662      43.6160
   1427.90722      27.5184      37.5605    1412.28222      28.6217      43.7052
   1427.89196      27.9690      37.2103    1412.26696      28.5315      43.9568
   1427.87670      28.0312      37.5843    1412.25170      28.2614      44.0100
   1427.86145      27.7992      37.9713    1412.23645      28.5291      44.3998
   1427.84619      27.9941      37.9906    1412.22119      28.7266      44.1527
   1427.83093      28.1738      38.4823    1412.20593      28.9138      44.7807
   1427.81567      28.0636      39.1265    1412.19067      28.9490      45.0924
   1427.80041      28.3609      39.0767    1412.17541      28.9574      45.0507
   1427.78515      28.4868      39.1411    1412.16015      29.0819      44.5616
   1427.76989      28.7353      39.0682    1412.14489      29.2099      44.6199
   1427.75463      28.5876      39.6347    1412.12963      29.4259      45.3197
   1427.73937      28.8431      39.9659    1412.11437      29.7251      45.4898
   1427.72412      29.0510      40.2943    1412.09912      29.2688      45.4092
   1427.70886      28.8542      39.6218    1412.08386      29.7102      45.5519
   1427.69360      28.8075      40.1028    1412.06860      29.9096      46.2143
   1427.67834      29.1324      40.2101    1412.05334      29.8415      45.6201
   1427.66308      29.2609      40.9641    1412.03808      29.8808      46.4756
   1427.64782      29.4898      40.9177    1412.02282      29.9344      45.6677
   1427.63256      29.7728      41.0272    1412.00756      30.0129      46.2870
   1427.61730      29.8938      40.8864    1411.99230      30.1575      46.4288
   1427.60205      29.5241      41.0306    1411.97705      30.2875      46.4727
   1427.58679      29.8852      41.1407    1411.96179      30.4534      46.3877
   1427.57153      29.8341      41.7304    1411.94653      30.4222      46.8725
   1427.55627      29.6123      41.7258    1411.93127      30.2040      46.8186
   1427.54101      30.3092      42.1399    1411.91601      30.6601      46.7906
   1427.52575      30.4133      42.3542    1411.90075      30.6407      47.0969
   1427.51049      30.6035      42.2358    1411.88549      30.6884      46.3918
   1427.49523      30.5056      42.0987    1411.87023      30.5850      46.9030
   1427.47998      30.4207      42.7247    1411.85498      30.7651      47.4906
   1427.46472      30.5997      42.4803    1411.83972      31.0095      47.5028
   1427.44946      30.6861      43.3979    1411.82446      31.0371      47.5169
   1427.43420      30.5667      42.8317    1411.80920      31.0075      47.5486
   1427.41894      30.9668      43.0625    1411.79394      30.9914      46.9197
   1427.40368      30.9104      43.4720    1411.77868      30.9654      48.0014
   1427.38842      31.1542      43.5574    1411.76342      31.2063      47.7639
   1427.37316      31.0087      44.0175    1411.74816      31.3010      47.8597
   1427.35791      31.2812      43.9367    1411.73291      31.2547      48.0421
   1427.34265      31.3484      43.9376    1411.71765      31.4405      47.8072
   1427.32739      31.4876      43.6407    1411.70239      31.5358      48.4601
   1427.31213      31.1502      44.4290    1411.68713      31.4481      48.2434
   1427.29687      31.6949      44.2084    1411.67187      31.6504      48.4644
   1427.28161      31.5420      44.3497    1411.65661      31.6901      47.8827
   1427.26635      31.5142      44.2549    1411.64135      31.6314      48.5807
   1427.25109      31.6487      44.6745    1411.62609      31.7504      48.4885
   1427.23583      31.8994      44.5717    1411.61083      31.5827      48.8846
   1427.22058      31.8436      44.7839    1411.59558      31.7261      48.3748
   1427.20532      31.7916      44.6509    1411.58032      32.0205      48.4859
   1427.19006      31.8942      44.9121    1411.56506      32.1016      48.5724
   1427.17480      31.6864      45.0823    1411.54980      32.2854      48.4917
   1427.15954      32.0346      44.9463    1411.53454      31.9552      48.9083
   1427.14428      32.1000      44.8058    1411.51928      31.9805      48.9517
   1427.12902      32.6698      44.9833    1411.50402      32.1891      48.3990
   1427.11376      32.3227      45.8552    1411.48876      32.3665      48.9644
   1427.09851      32.3389      45.5536    1411.47351      32.1622      48.9236
   1427.08325      32.5645      45.8948    1411.45825      32.1047      48.9212
   1427.06799      32.4179      45.8656    1411.44299      32.2598      48.3360
   1427.05273      32.2510      45.8956    1411.42773      31.9022      49.1921
   1427.03747      32.3142      46.1548    1411.41247      31.9623      49.1964
   1427.02221      32.5041      46.4877    1411.39721      32.4651      49.4185
   1427.00695      32.8272      46.1656    1411.38195      32.5328      48.6648
   1426.99169      32.9437      46.4345    1411.36669      32.5034      49.0379
   1426.97644      32.5986      45.9843    1411.35144      32.2201      49.0103
   1426.96118      32.8062      46.4680    1411.33618      32.2202      49.3853
   1426.94592      32.8833      46.3559    1411.32092      32.4528      49.5774
   1426.93066      32.9922      46.8432    1411.30566      32.4973      49.0283
   1426.91540      32.7014      46.9684    1411.29040      32.6870      49.2173
   1426.90014      33.1686      46.4552    1411.27514      32.6062      48.9261
   1426.88488      32.9907      46.6505    1411.25988      32.7633      49.2241
   1426.86962      33.0438      46.8459    1411.24462      32.5265      48.9270
   1426.85437      33.5463      47.2214    1411.22937      32.8260      49.1541
   1426.83911      32.9078      46.8558    1411.21411      32.6488      49.0311
   1426.82385      33.1559      47.2545    1411.19885      32.5702      49.1316
   1426.80859      33.2548      47.4365    1411.18359      32.8863      49.4508
   1426.79333      33.2976      47.2201    1411.16833      33.0020      49.8167
   1426.77807      33.3065      46.7487    1411.15307      33.1860      49.2667
   1426.76281      33.5494      47.1498    1411.13781      32.6412      49.2879
   1426.74755      33.5145      47.2676    1411.12255      32.8812      48.7377
   1426.73229      33.4049      47.0904    1411.10729      32.8305      49.0171
   1426.71704      33.4725      47.2798    1411.09204      33.2669      48.9498
   1426.70178      33.4789      47.2642    1411.07678      32.9957      48.9333
   1426.68652      34.0044      46.9529    1411.06152      33.2211      49.0991
   1426.67126      33.4819      46.8636    1411.04626      32.7716      49.0125
   1426.65600      33.7046      47.4981    1411.03100      32.9239      49.2129
   1426.64074      33.6323      47.3067    1411.01574      33.2670      48.5115
   1426.62548      33.7988      47.3796    1411.00048      32.9447      49.0517
   1426.61022      33.8076      47.4357    1410.98522      33.2921      48.8610
   1426.59497      33.9780      47.3566    1410.96997      33.2421      48.1377
   1426.57971      33.9569      47.3191    1410.95471      33.1969      48.5841
   1426.56445      34.0463      47.1570    1410.93945      33.1549      48.4403
   1426.54919      34.2143      47.6418    1410.92419      32.8916      49.1570
   1426.53393      33.9982      47.8169    1410.90893      33.1403      48.4932
   1426.51867      33.9156      47.6000    1410.89367      32.9317      48.3157
   1426.50341      34.0441      47.4860    1410.87841      33.0188      48.5598
   1426.48815      34.3751      47.1362    1410.86315      33.2447      48.9102
   1426.47290      34.2406      47.3408    1410.84790      33.0477      48.7217
   1426.45764      34.4909      47.6636    1410.83264      33.3170      48.4038
   1426.44238      34.2338      47.3645    1410.81738      33.0656      48.5974
   1426.42712      33.8395      47.6952    1410.80212      33.1753      48.3561
   1426.41186      34.2568      46.8971    1410.78686      32.9140      48.4530
   1426.39660      34.2945      47.1558    1410.77160      33.2897      47.8753
   1426.38134      34.4041      47.2715    1410.75634      33.2286      47.5190
   1426.36608      34.2761      47.6780    1410.74108      33.3975      47.7832
   1426.35083      34.3297      47.6243    1410.72583      33.8193      47.6596
   1426.33557      34.4845      47.1647    1410.71057      33.1335      48.2948
   1426.32031      34.4683      47.0635    1410.69531      33.3251      48.0057
   1426.30505      34.2433      47.3759    1410.68005      33.1928      47.8475
   1426.28979      34.4331      46.9352    1410.66479      33.2276      47.3705
   1426.27453      34.5826      47.1367    1410.64953      33.2584      47.5940
   1426.25927      34.4671      47.0633    1410.63427      33.6494      47.8598
   1426.24401      34.6697      47.3916    1410.61901      33.3769      47.8474
   1426.22875      34.4902      47.1291    1410.60375      33.3653      47.2863
   1426.21350      34.7493      47.4630    1410.58850      33.6835      47.8956
   1426.19824      34.6448      47.5376    1410.57324      33.4026      47.3120
   1426.18298      34.6314      47.2813    1410.55798      33.5720      47.2705
   1426.16772      34.8664      46.9271    1410.54272      33.7896      47.5046
   1426.15246      34.8357      47.2641    1410.52746      33.5115      46.8036
   1426.13720      34.5321      47.0309    1410.51220      33.4388      46.9692
   1426.12194      34.6542      47.1464    1410.49694      33.3317      47.0385
   1426.10668      34.8695      46.9210    1410.48168      33.3024      46.9222
   1426.09143      34.6280      46.8373    1410.46643      33.6158      46.8563
   1426.07617      34.7319      46.7422    1410.45117      33.2802      46.8619
   1426.06091      35.2025      47.3227    1410.43591      33.5594      46.4812
   1426.04565      34.7096      47.0512    1410.42065      33.6053      46.6426
   1426.03039      34.7283      47.0375    1410.40539      33.8190      46.8066
   1426.01513      34.8021      47.0907    1410.39013      33.8026      46.5409
   1425.99987      35.0280      46.5563    1410.37487      33.7849      46.3864
   1425.98461      35.0957      46.8528    1410.35961      33.4974      46.3352
   1425.96936      35.0450      47.0834    1410.34436      33.4196      46.2708
   1425.95410      35.2579      46.8381    1410.32910      33.3930      46.3007
   1425.93884      35.1733      46.8705    1410.31384      33.6218      45.9404
   1425.92358      35.2823      46.6473    1410.29858      33.9070      46.3049
   1425.90832      35.2517      46.5931    1410.28332      33.5755      45.9806
   1425.89306      34.8207      46.2777    1410.26806      33.6048      45.5296
   1425.87780      35.1426      46.9267    1410.25280      33.6328      45.5983
   1425.86254      35.3621      46.7690    1410.23754      33.8831      45.5633
   1425.84729      35.0152      46.4158    1410.22229      34.0464      45.7208
   1425.83203      35.2196      46.5118    1410.20703      33.6016      45.9194
   1425.81677      35.0443      46.3970    1410.19177      33.9162      45.8284
   1425.80151      35.5427      45.6779    1410.17651      33.9954      45.4829
   1425.78625      35.2847      46.7531    1410.16125      33.8497      45.6611
   1425.77099      35.5086      46.2420    1410.14599      33.9833      44.9351
   1425.75573      35.2003      45.9210    1410.13073      33.5314      45.4764
   1425.74047      35.1592      45.7518    1410.11547      33.8829      44.5187
   1425.72521      35.3820      45.5250    1410.10021      33.8201      45.1534
   1425.70996      35.6098      46.2040    1410.08496      33.8970      44.7675
   1425.69470      35.2397      46.0591    1410.06970      34.1617      45.0134
   1425.67944      35.6406      45.6951    1410.05444      34.1232      44.4845
   1425.66418      35.4945      45.8574    1410.03918      33.8504      44.3511
   1425.64892      35.8243      45.6652    1410.02392      33.9259      44.6141
   1425.63366      35.8393      45.4796    1410.00866      33.9805      44.4504
   1425.61840      35.1847      45.7627    1409.99340      34.2715      43.9379
   1425.60314      35.7316      45.4629    1409.97814      34.0215      44.2289
   1425.58789      35.4848      45.2668    1409.96289      34.3041      43.9346
   1425.57263      35.7454      45.3237    1409.94763      33.6984      44.1820
   1425.55737      35.6821      45.4055    1409.93237      33.8772      43.4842
   1425.54211      35.7020      45.1236    1409.91711      33.9963      44.2931
   1425.52685      35.7158      45.1923    1409.90185      34.0140      43.9698
   1425.51159      35.8196      45.2156    1409.88659      33.9694      43.8463
   1425.49633      35.9127      44.8464    1409.87133      34.1910      43.8257
   1425.48107      35.6908      44.7866    1409.85607      34.3591      43.7322
   1425.46582      35.7140      45.0319    1409.84082      33.8534      43.2419
   1425.45056      35.7548      44.9941    1409.82556      34.0141      43.3031
   1425.43530      35.9536      44.7814    1409.81030      33.7995      43.2256
   1425.42004      35.9160      44.6425    1409.79504      34.1089      43.1763
   1425.40478      36.0891      45.0281    1409.77978      34.5475      42.8416
   1425.38952      36.0673      44.6158    1409.76452      34.2954      42.7289
   1425.37426      36.2460      44.5529    1409.74926      34.2858      42.9396
   1425.35900      36.4940      44.6778    1409.73400      34.5664      42.9477
   1425.34375      36.2356      44.0215    1409.71875      34.1262      42.6863
   1425.32849      36.5255      43.9813    1409.70349      34.2849      42.6449
   1425.31323      36.1084      44.3390    1409.68823      34.0919      42.3616
   1425.29797      36.4863      43.7550    1409.67297      34.4535      42.6975
   1425.28271      36.4757      43.8558    1409.65771      34.3380      42.4321
   1425.26745      36.5531      44.5392    1409.64245      34.4748      42.1505
   1425.25219      36.5461      43.9952    1409.62719      34.3347      41.8453
   1425.23693      36.3454      43.9593    1409.61193      34.6918      42.0758
   1425.22167      36.3468      43.7644    1409.59667      34.6581      42.1004
   1425.20642      36.3699      43.7699    1409.58142      34.5142      41.8321
   1425.19116      36.3768      44.1897    1409.56616      34.3560      41.9280
   1425.17590      36.3757      43.8266    1409.55090      34.2010      42.0432
   1425.16064      36.3235      43.5258    1409.53564      34.8271      41.7804
   1425.14538      36.7878      43.4777    1409.52038      34.8006      41.9303
   1425.13012      36.4973      43.4979    1409.50512      34.5318      41.3625
   1425.11486      36.8334      43.1820    1409.48986      34.6668      41.7275
   1425.09960      36.5328      43.6853    1409.47460      34.5225      41.3337
   1425.08435      36.4895      43.2438    1409.45935      34.7805      41.2871
   1425.06909      36.7519      42.9757    1409.44409      34.8371      40.9984
   1425.05383      36.9170      43.6117    1409.42883      34.9569      41.5403
   1425.03857      36.6661      43.4158    1409.41357      34.8044      41.1884
   1425.02331      36.5268      42.8422    1409.39831      34.8041      40.8268
   1425.00805      37.1978      42.9095    1409.38305      34.8119      40.6835
   1424.99279      37.0535      42.8393    1409.36779      35.0945      40.7593
   1424.97753      37.7112      42.4850    1409.35253      34.8536      40.2800
   1424.96228      36.8101      43.1984    1409.33728      34.6331      40.8419
   1424.94702      36.8746      42.4710    1409.32202      34.7641      40.3782
   1424.93176      37.0082      42.7530    1409.30676      35.3558      40.6560
   1424.91650      37.0946      42.7001    1409.29150      34.5398      40.3751
   1424.90124      37.3015      42.2515    1409.27624      34.9233      39.9834
   1424.88598      37.5285      42.4556    1409.26098      35.5504      40.3403
   1424.87072      37.0438      42.1175    1409.24572      34.9604      40.4682
   1424.85546      37.0825      42.6275    1409.23046      34.7646      39.9640
   1424.84021      37.4315      42.4222    1409.21521      35.1249      40.0003
   1424.82495      37.4298      42.5448    1409.19995      35.2325      39.7228
   1424.80969      37.5350      42.1256    1409.18469      35.3867      40.1482
   1424.79443      37.7104      41.9223    1409.16943      35.1422      40.1288
   1424.77917      37.5849      42.1875    1409.15417      34.9784      40.0325
   1424.76391      37.4636      42.1990    1409.13891      35.1927      39.0346
   1424.74865      37.5876      41.6379    1409.12365      35.2534      39.1564
   1424.73339      37.7243      41.9611    1409.10839      35.4206      39.1561
   1424.71813      37.7779      41.7025    1409.09313      35.5756      39.2935
   1424.70288      37.8496      41.4872    1409.07788      35.4903      39.2704
   1424.68762      37.4781      41.6067    1409.06262      35.6616      39.3164
   1424.67236      38.0506      41.8639    1409.04736      35.5531      38.9693
   1424.65710      37.7082      41.3672    1409.03210      35.9306      39.5501
   1424.64184      37.7946      41.8312    1409.01684      35.6368      38.5702
   1424.62658      38.0640      41.6918    1409.00158      35.5830      38.4939
   1424.61132      37.9410      41.2416    1408.98632      35.3722      38.6510
   1424.59606      37.9097      41.3711    1408.97106      35.6987      38.4117
   1424.58081      37.8105      41.1326    1408.95581      35.8001      38.5948
   1424.56555      37.8535      41.4966    1408.94055      35.7316      38.3091
   1424.55029      37.8259      41.2188    1408.92529      36.0147      37.9048
   1424.53503      38.1857      41.1339    1408.91003      36.1455      38.2205
   1424.51977      38.1653      41.3495    1408.89477      36.0074      38.6651
   1424.50451      37.9122      40.8002    1408.87951      35.9240      38.3074
   1424.48925      38.2331      41.1391    1408.86425      35.8761      37.8560
   1424.47399      38.0166      40.6335    1408.84899      36.2048      38.1831
   1424.45874      38.4442      40.8149    1408.83374      36.2274      38.1243
   1424.44348      38.4586      40.6766    1408.81848      36.3240      38.2191
   1424.42822      38.4599      40.6921    1408.80322      36.2815      37.8351
   1424.41296      38.5036      40.5315    1408.78796      36.1663      37.7479
   1424.39770      38.4710      40.5592    1408.77270      36.5354      37.4424
   1424.38244      38.4376      40.3714    1408.75744      36.2539      37.7018
   1424.36718      38.3597      40.0579    1408.74218      36.1874      37.7145
   1424.35192      39.0868      40.4472    1408.72692      36.2099      37.3175
   1424.33667      38.6677      40.3108    1408.71167      36.6675      37.4271
   1424.32141      38.3579      39.7688    1408.69641      36.5175      37.2263
   1424.30615      38.5840      40.5839    1408.68115      36.3741      37.0488
   1424.29089      38.8295      40.2065    1408.66589      36.7751      37.2685
   1424.27563      38.4696      39.5545    1408.65063      36.5104      36.9125
   1424.26037      38.8659      39.9739    1408.63537      36.7647      37.1596
   1424.24511      38.8861      39.6143    1408.62011      36.9464      36.4842
   1424.22985      39.0349      39.7929    1408.60485      37.0059      36.8237
   1424.21459      38.9154      39.5621    1408.58959      36.5477      36.9765
   1424.19934      38.7157      39.4935    1408.57434      36.6053      36.4491
   1424.18408      39.0941      39.5785    1408.55908      37.2185      36.7262
   1424.16882      38.9927      39.6971    1408.54382      37.6598      36.6155
   1424.15356      38.8475      39.5925    1408.52856      36.8502      36.5917
   1424.13830      39.4027      39.2723    1408.51330      36.9096      36.2792
   1424.12304      39.5839      39.3452    1408.49804      37.2472      36.8067
   1424.10778      39.3741      39.5393    1408.48278      37.2461      36.3868
   1424.09252      39.0925      39.1794    1408.46752      36.8901      36.1298
   1424.07727      39.0161      38.9440    1408.45227      36.6522      36.1308
   1424.06201      39.0453      39.3500    1408.43701      37.2696      36.1059
   1424.04675      39.3245      39.2705    1408.42175      37.5964      36.0818
   1424.03149      39.3994      38.8629    1408.40649      37.2129      35.8721
   1424.01623      39.1513      39.1957    1408.39123      37.2431      35.8030
   1424.00097      39.3933      38.9934    1408.37597      37.1559      36.2352
   1423.98571      39.6130      39.0808    1408.36071      37.2088      35.9430
   1423.97045      39.2865      38.5950    1408.34545      37.5556      35.7468
   1423.95520      39.3150      38.4971    1408.33020      37.2973      35.8853
   1423.93994      39.9790      38.4014    1408.31494      37.5999      35.7480
   1423.92468      39.6177      38.5482    1408.29968      37.5489      35.4607
   1423.90942      39.7856      38.6587    1408.28442      37.6325      35.9233
   1423.89416      39.2247      38.7154    1408.26916      38.1160      35.6485
   1423.87890      39.7022      38.9291    1408.25390      37.6143      35.7224
   1423.86364      39.3617      38.5452    1408.23864      37.6392      35.4908
   1423.84838      39.4110      38.7408    1408.22338      38.0112      35.2614
   1423.83312      39.7344      38.1405    1408.20812      37.7053      35.3586
   1423.81787      39.8953      37.9969    1408.19287      37.8130      35.2111
   1423.80261      40.3293      38.1862    1408.17761      37.7636      35.0789
   1423.78735      39.9678      38.2344    1408.16235      37.8062      35.4500
   1423.77209      40.0595      38.4547    1408.14709      38.0928      35.5075
   1423.75683      39.9353      37.5706    1408.13183      38.1717      35.0201
   1423.74157      39.9605      38.2012    1408.11657      38.4016      34.9601
   1423.72631      40.0003      37.7970    1408.10131      38.0815      35.0661
   1423.71105      39.7671      37.7720    1408.08605      38.0267      34.9314
   1423.69580      39.7692      37.4085    1408.07080      38.0794      35.0408
   1423.68054      40.1626      37.2729    1408.05554      38.4604      34.8815
   1423.66528      39.7507      37.5047    1408.04028      38.3762      34.4705
   1423.65002      40.2975      37.1630    1408.02502      38.7686      34.6033
   1423.63476      40.3008      37.4213    1408.00976      38.7157      34.9812
   1423.61950      39.9677      37.4018    1407.99450      38.7352      34.9132
   1423.60424      40.4132      37.2845    1407.97924      38.5713      34.5459
   1423.58898      40.1700      37.1401    1407.96398      38.9406      34.7817
   1423.57373      39.9425      36.9075    1407.94873      38.7125      34.5552
   1423.55847      40.2745      37.3271    1407.93347      38.4791      34.2464
   1423.54321      40.5755      37.4660    1407.91821      38.8008      34.4617
   1423.52795      40.4439      36.7673    1407.90295      38.8784      34.1649
   1423.51269      40.1003      36.7661    1407.88769      38.8374      34.3371
   1423.49743      40.7569      36.9260    1407.87243      38.8237      34.5489
   1423.48217      40.8226      37.0131    1407.85717      38.9743      34.2116
   1423.46691      40.3903      36.9252    1407.84191      39.0014      34.2865
   1423.45166      40.7078      36.8666    1407.82666      39.1859      34.1182
   1423.43640      40.5189      36.3155    1407.81140      39.2489      34.4883
   1423.42114      40.8271      36.4827    1407.79614      39.4010      34.3009
   1423.40588      40.4990      36.2539    1407.78088      38.8908      34.1797
   1423.39062      40.1744      36.5145    1407.76562      39.5424      34.3016
   1423.37536      40.5083      36.4470    1407.75036      38.9396      34.0668
   1423.36010      40.3589      36.4200    1407.73510      39.1636      33.9180
   1423.34484      40.9433      36.4731    1407.71984      39.3700      33.8287
   1423.32958      40.7706      36.0389    1407.70458      39.2980      33.9764
   1423.31433      40.6134      35.8699    1407.68933      39.6235      34.0680
   1423.29907      40.8495      36.0784    1407.67407      39.3439      33.7321
   1423.28381      40.5290      36.1456    1407.65881      40.0149      34.2255
   1423.26855      40.9410      35.9425    1407.64355      39.5356      34.1652
   1423.25329      40.2688      35.9829    1407.62829      39.6732      33.7443
   1423.23803      41.2018      35.9403    1407.61303      39.3525      33.4733
   1423.22277      40.2743      35.7373    1407.59777      40.2681      33.6679
   1423.20751      40.8648      35.7267    1407.58251      40.0523      33.7983
   1423.19226      40.5487      35.7602    1407.56726      39.6481      33.4512
   1423.17700      40.5642      35.6435    1407.55200      39.9055      33.8930
   1423.16174      40.6676      35.8344    1407.53674      40.1795      33.3955
   1423.14648      41.2071      35.6397    1407.52148      39.8990      33.6203
   1423.13122      40.7629      35.4401    1407.50622      39.8480      33.5022
   1423.11596      40.7210      35.3026    1407.49096      40.1626      33.1741
   1423.10070      41.4479      35.7240    1407.47570      39.9951      33.4095
   1423.08544      41.1091      35.6222    1407.46044      39.9261      33.4050
   1423.07019      41.3207      35.2298    1407.44519      40.6233      33.6373
   1423.05493      41.1246      35.0783    1407.42993      40.6189      33.2733
   1423.03967      41.1451      35.2923    1407.41467      40.1452      33.5198
   1423.02441      41.4059      35.2427    1407.39941      40.2323      33.3543
   1423.00915      40.9002      35.0463    1407.38415      40.7333      33.4768
   1422.99389      41.3405      34.8323    1407.36889      40.2574      33.5092
   1422.97863      40.9831      34.8784    1407.35363      40.6826      33.2441
   1422.96337      41.0204      34.2950    1407.33837      40.8512      33.1195
   1422.94812      40.9045      35.1357    1407.32312      40.8768      33.0348
   1422.93286      41.3492      34.6052    1407.30786      40.8786      33.1569
   1422.91760      41.1401      34.7984    1407.29260      40.8492      32.9409
   1422.90234      40.8805      34.7060    1407.27734      40.2013      32.7501
   1422.88708      41.2393      34.6754    1407.26208      40.9977      33.1983
   1422.87182      41.3754      34.4283    1407.24682      40.8215      33.0091
   1422.85656      41.5579      34.3482    1407.23156      41.1019      33.0082
   1422.84130      41.3306      34.7121    1407.21630      40.9027      33.0798
   1422.82604      41.1561      34.5069    1407.20104      41.1990      32.9395
   1422.81079      41.2401      34.2982    1407.18579      41.1326      32.7004
   1422.79553      41.3055      34.5945    1407.17053      41.1664      33.3624
   1422.78027      41.5765      34.6414    1407.15527      41.1472      32.7714
   1422.76501      41.5020      34.3228    1407.14001      40.8396      32.7250
   1422.74975      41.6252      34.2420    1407.12475      41.3324      33.0306
   1422.73449      41.2969      34.3766    1407.10949      41.2968      32.9236
   1422.71923      41.2044      34.0451    1407.09423      41.3946      32.7303
   1422.70397      41.5042      33.9179    1407.07897      40.8253      33.0068
   1422.68872      41.3227      33.8990    1407.06372      41.4053      32.9795
   1422.67346      41.3538      34.0569    1407.04846      41.4627      32.9734
   1422.65820      41.5507      33.8696    1407.03320      41.6932      32.7505
   1422.64294      41.4704      33.8131    1407.01794      41.7820      32.7926
   1422.62768      41.5728      33.9500    1407.00268      41.6352      32.9363
   1422.61242      41.0147      33.7057    1406.98742      41.6167      32.9403
   1422.59716      41.5043      33.9586    1406.97216      41.3668      32.8271
   1422.58190      41.5246      33.9549    1406.95690      41.6047      32.8208
   1422.56665      41.9328      33.8591    1406.94165      41.3845      32.6829
   1422.55139      41.4023      33.6417    1406.92639      42.1546      32.4545
   1422.53613      41.3541      33.7158    1406.91113      42.0546      32.5085
   1422.52087      41.6745      33.5770    1406.89587      41.7312      32.3048
   1422.50561      41.5624      33.7432    1406.88061      41.9574      32.7541
   1422.49035      41.4799      33.5666    1406.86535      41.7023      32.5109
   1422.47509      41.3654      33.3443    1406.85009      42.5407      32.8207
   1422.45983      41.5615      33.2909    1406.83483      41.9624      32.7670
   1422.44458      41.8459      33.2801    1406.81958      42.2123      32.6316
   1422.42932      41.6274      33.4787    1406.80432      41.8552      32.6779
   1422.41406      41.7053      33.4862    1406.78906      41.9320      32.9629
   1422.39880      41.7090      33.1545    1406.77380      42.1696      32.8146
   1422.38354      41.7738      33.2004    1406.75854      41.9890      32.7786
   1422.36828      41.9108      32.6921    1406.74328      42.1995      32.6016
   1422.35302      42.0786      33.3869    1406.72802      42.6289      32.6636
   1422.33776      41.5397      33.0669    1406.71276      42.5388      32.8140
   1422.32250      41.5725      33.0217    1406.69750      42.5812      32.8170
   1422.30725      41.7465      32.7308    1406.68225      42.5870      32.5322
   1422.29199      41.5873      33.0838    1406.66699      42.7580      32.8135
   1422.27673      41.9649      33.0835    1406.65173      43.0522      32.9394
   1422.26147      41.8669      32.6571    1406.63647      42.8864      32.4456
   1422.24621      41.9565      32.9328    1406.62121      42.7450      32.3737
   1422.23095      42.0797      33.1136    1406.60595      42.7540      32.3770
   1422.21569      41.7358      32.5249    1406.59069      42.9491      32.7358
   1422.20043      41.8900      32.7035    1406.57543      42.6965      32.4160
   1422.18518      42.0506      32.8114    1406.56018      42.7306      32.4645
   1422.16992      41.9495      32.4983    1406.54492      42.4246      32.5054
   1422.15466      42.1308      32.6753    1406.52966      42.7896      32.9378
   1422.13940      41.9125      32.7454    1406.51440      42.9295      32.9012
   1422.12414      41.9158      32.4117    1406.49914      43.3142      32.8016
   1422.10888      42.1944      32.5232    1406.48388      42.6105      32.5304
   1422.09362      41.8421      32.3663    1406.46862      42.5089      32.8291
   1422.07836      42.2040      32.1810    1406.45336      43.0357      32.7770
   1422.06311      42.1655      32.2870    1406.43811      42.8920      32.6910
   1422.04785      42.3169      32.6162    1406.42285      42.9916      32.3932
   1422.03259      42.4392      32.0308    1406.40759      42.9490      32.7527
   1422.01733      42.4388      32.3882    1406.39233      43.2727      32.7260
   1422.00207      41.9322      32.4714    1406.37707      42.7197      32.7475
   1421.98681      41.8624      32.3050    1406.36181      43.5060      32.5084
   1421.97155      42.1916      32.3652    1406.34655      42.4702      32.5086
   1421.95629      42.1395      32.1709    1406.33129      43.3463      32.6352
   1421.94104      41.8586      32.2340    1406.31604      43.0654      32.9637
   1421.92578      42.2967      32.2550    1406.30078      42.8209      32.7351
   1421.91052      42.1355      32.2269    1406.28552      43.0841      32.9149
   1421.89526      42.1721      32.3955    1406.27026      43.3463      33.3164
   1421.88000      42.3384      32.2683    1406.25500      43.2781      33.3529
   1421.86474      42.5048      32.1410    1406.23974      43.2099      33.3895
   1421.84948      42.7327      31.9900    1406.22448      42.9096      32.7771
   1421.83422      41.8216      32.2589    1406.20922      43.1539      32.9979
   1421.81896      42.6302      31.9520    1406.19396      43.5747      33.2235
   1421.80371      41.9329      32.1238    1406.17871      43.5160      32.9567
   1421.78845      42.9107      32.0095    1406.16345      43.4494      32.7221
   1421.77319      42.4510      32.0748    1406.14819      43.0131      32.9567
   1421.75793      42.1986      32.0647    1406.13293      43.5113      33.4170
   1421.74267      42.2036      31.8963    1406.11767      43.3856      33.1767
   1421.72741      42.3672      31.8659    1406.10241      43.3454      32.9689
   1421.71215      42.5968      31.9767    1406.08715      43.2522      33.0748
   1421.69689      42.5249      32.0732    1406.07189      43.3641      32.9992
   1421.68164      42.5932      32.0706    1406.05664      43.6436      33.2073
   1421.66638      42.5492      32.1400    1406.04138      43.1113      33.0196
   1421.65112      42.8571      31.5719    1406.02612      43.7388      33.1967
   1421.63586      42.7004      31.6599    1406.01086      43.5982      33.5057
   1421.62060      42.9788      31.4873    1405.99560      43.5463      33.4595
   1421.60534      42.9435      31.8707    1405.98034      43.8433      33.3586
   1421.59008      43.1118      31.8767    1405.96508      43.3892      33.5978
   1421.57482      42.7937      31.7619    1405.94982      43.5768      33.5241
   1421.55957      43.2856      31.9951    1405.93457      43.3016      33.4919
   1421.54431      42.4972      31.5676    1405.91931      43.5987      33.4770
   1421.52905      42.8769      31.8858    1405.90405      44.2114      33.1831
   1421.51379      42.8762      31.8052    1405.88879      43.5473      33.5714
   1421.49853      42.4939      31.7181    1405.87353      43.8357      33.3866
   1421.48327      42.9273      31.6564    1405.85827      43.5984      33.5580
   1421.46801      42.7551      31.8521    1405.84301      44.0649      33.4882
   1421.45275      42.6256      31.5566    1405.82775      43.6427      33.7600
   1421.43750      42.9341      32.0193    1405.81250      43.5288      33.4350
   1421.42224      42.9110      31.8109    1405.79724      43.8882      33.8401
   1421.40698      43.3386      31.7565    1405.78198      43.4870      33.9043
   1421.39172      43.1773      31.6928    1405.76672      43.5615      33.9047
   1421.37646      43.0225      31.6488    1405.75146      43.8881      33.8154
   1421.36120      43.0219      31.4014    1405.73620      43.7863      33.7177
   1421.34594      43.2704      31.4253    1405.72094      44.1788      34.1055
   1421.33068      43.5418      31.7903    1405.70568      43.8712      33.7715
   1421.31542      43.3232      31.6426    1405.69042      43.5862      34.0738
   1421.30017      43.0911      31.7055    1405.67517      44.1355      33.7609
   1421.28491      43.2287      31.7743    1405.65991      43.8676      34.1235
   1421.26965      43.4980      31.3169    1405.64465      43.5377      33.8384
   1421.25439      43.3008      31.7321    1405.62939      43.5968      34.1038
   1421.23913      43.6952      31.7142    1405.61413      43.3616      34.2316
   1421.22387      43.5434      31.7114    1405.59887      43.6469      34.5839
   1421.20861      43.0466      32.0799    1405.58361      43.5634      34.2323
   1421.19335      43.4103      31.8652    1405.56835      43.8644      34.1570
   1421.17810      43.2569      31.8897    1405.55310      43.6488      34.4038
   1421.16284      43.7342      31.6798    1405.53784      43.4934      34.2708
   1421.14758      43.8537      31.5821    1405.52258      44.1170      34.5503
   1421.13232      43.3881      31.9413    1405.50732      43.7696      34.4268
   1421.11706      43.4679      31.8949    1405.49206      43.6416      34.5204
   1421.10180      44.0014      31.8492    1405.47680      43.3203      34.6885
   1421.08654      43.6032      31.5803    1405.46154      43.8615      34.8477
   1421.07128      43.7254      31.9441    1405.44628      43.6729      34.9239
   1421.05603      44.1972      32.0340    1405.43103      43.9651      34.6013
   1421.04077      44.5824      32.1064    1405.41577      43.5555      34.6942
   1421.02551      44.8423      32.7623    1405.40051      43.4396      35.0665
   1421.01025      45.7811      32.8592    1405.38525      43.6127      35.0378
   1420.99499      46.6204      33.2823    1405.36999      43.5177      35.1876
   1420.97973      47.1838      34.1564    1405.35473      43.5653      35.3022
   1420.96447      48.7591      34.6353    1405.33947      43.2269      35.0981
   1420.94921      50.2144      36.0186    1405.32421      43.8485      35.1487
   1420.93396      52.1848      37.2353    1405.30896      43.4244      35.4577
   1420.91870      56.0984      39.5234    1405.29370      44.1501      35.3630
   1420.90344      62.4034      43.4272    1405.27844      43.4876      34.9378
   1420.88818      70.4761      49.4525    1405.26318      42.9260      35.3507
   1420.87292      79.8745      55.4880    1405.24792      43.7923      35.5549
   1420.85766      87.4153      59.8922    1405.23266      43.8232      35.1572
   1420.84240      84.9049      58.6052    1405.21740      43.3957      35.2802
   1420.82714      76.1582      53.3793    1405.20214      43.2736      35.9069
   1420.81188      66.5475      46.6851    1405.18688      43.1268      36.0295
   1420.79663      60.6501      42.7626    1405.17163      43.2328      35.8438
   1420.78137      58.5384      41.4080    1405.15637      43.2932      36.0851
   1420.76611      58.6375      41.0975    1405.14111      43.1930      35.9548
   1420.75085      57.3074      40.9108    1405.12585      43.7483      35.7184
   1420.73559      54.8096      38.8531    1405.11059      43.5444      35.9090
   1420.72033      53.1687      37.5964    1405.09533      43.4295      36.2335
   1420.70507      51.3180      36.2119    1405.08007      43.2275      35.7686
   1420.68981      50.4421      35.4849    1405.06481      43.1892      36.5238
   1420.67456      50.2607      35.9867    1405.04956      43.1298      36.2443
   1420.65930      51.7263      37.0697    1405.03430      43.2967      36.1723
   1420.64404      55.9963      39.2503    1405.01904      43.2847      36.3942
   1420.62878      66.0155      45.9093    1405.00378      43.0890      36.6271
   1420.61352      84.1556      57.5592    1404.98852      43.0878      36.5795
   1420.59826     101.5499      69.9780    1404.97326      43.2141      36.5276
   1420.58300     110.9628      76.2752    1404.95800      43.1583      36.5129
   1420.56774     118.0959      79.6079    1404.94274      43.1418      37.0483
   1420.55249     124.6978      85.8149    1404.92749      42.9514      37.0152
   1420.53723     134.4226      89.6783    1404.91223      43.2582      36.7124
   1420.52197     133.5677      91.0423    1404.89697      42.9957      36.9795
   1420.50671     131.2669      88.6996    1404.88171      42.9006      36.5655
   1420.49145     111.8984      75.4657    1404.86645      42.7237      37.1045
   1420.47619     105.1332      71.5679    1404.85119      42.7002      37.2293
   1420.46093     111.5085      75.6121    1404.83593      42.7049      37.3628
   1420.44567     123.7824      84.6380    1404.82067      42.7678      37.3378
   1420.43042     141.0400      96.0437    1404.80542      43.2179      36.9102
   1420.41516     153.7441     102.5710    1404.79016      42.5097      37.4509
   1420.39990     148.1125     100.6000    1404.77490      42.7325      37.2494
   1420.38464     151.5156     101.6198    1404.75964      42.8084      37.7535
   1420.36938     148.3632      99.4890    1404.74438      42.6814      37.2015
   1420.35412     130.6718      88.3600    1404.72912      42.3178      37.4953
   1420.33886     106.1896      72.7725    1404.71386      42.4805      37.0442
   1420.32360      82.6674      57.0103    1404.69860      42.6893      37.6811
   1420.30834      66.5545      46.7826    1404.68334      42.6857      37.7811
   1420.29309      56.9667      40.2045    1404.66809      42.4881      37.5529
   1420.27783      51.5387      36.7374    1404.65283      41.9314      37.6836
   1420.26257      49.0751      35.0923    1404.63757      42.4009      37.9547
   1420.24731      47.6338      34.3987    1404.62231      42.0846      38.0308
   1420.23205      46.5371      33.8190    1404.60705      42.3622      38.3442
   1420.21679      45.7894      33.2251    1404.59179      42.0907      38.5530
   1420.20153      45.8073      32.8393    1404.57653      41.9650      38.2623
   1420.18627      45.3252      33.1257    1404.56127      41.9639      39.0220
   1420.17102      45.2978      32.8174    1404.54602      42.0122      38.4595
   1420.15576      45.4346      32.6526    1404.53076      41.9676      38.6486
   1420.14050      45.3366      33.0131    1404.51550      42.1349      38.5881
   1420.12524      45.7337      33.1422    1404.50024      41.8644      38.4594
   1420.10998      45.0964      32.8475    1404.48498      42.1155      38.6306
   1420.09472      44.8259      32.9451    1404.46972      41.8824      38.7074
   1420.07946      45.2622      32.7961    1404.45446      42.0416      39.2645
   1420.06420      44.9404      32.8292    1404.43920      41.4757      38.6450
   1420.04895      45.4747      32.8686    1404.42395      41.7180      39.1175
   1420.03369      45.2052      33.4681    1404.40869      41.7379      39.2336
   1420.01843      44.9075      33.1060    1404.39343      41.9728      39.5548
   1420.00317      45.2980      32.8862    1404.37817      41.7746      39.6445
   1419.98791      45.8512      33.0363    1404.36291      42.0124      39.9344
   1419.97265      45.0572      33.0999    1404.34765      41.8000      39.7732
   1419.95739      45.1031      33.1849    1404.33239      41.7198      39.6950
   1419.94213      45.5777      33.1372    1404.31713      41.5488      39.3579
   1419.92687      45.1538      32.9726    1404.30187      41.1989      40.1119
   1419.91162      45.6546      33.2331    1404.28662      41.6105      40.0103
   1419.89636      45.1826      33.1533    1404.27136      41.6919      40.3426
   1419.88110      45.4056      33.3531    1404.25610      41.3374      40.2393
   1419.86584      44.9031      33.2094    1404.24084      41.3187      40.0112
   1419.85058      45.1228      33.2917    1404.22558      41.7513      40.2961
   1419.83532      45.4121      33.3269    1404.21032      41.3575      40.0315
   1419.82006      45.2038      33.2850    1404.19506      41.6986      40.4869
   1419.80480      44.4584      33.0549    1404.17980      40.9131      40.6282
   1419.78955      44.9781      33.4467    1404.16455      41.0263      40.1279
   1419.77429      45.2802      33.4608    1404.14929      41.4430      40.7463
   1419.75903      45.1520      33.4935    1404.13403      41.3501      40.9401
   1419.74377      45.0942      33.4026    1404.11877      41.0443      40.7912
   1419.72851      44.8089      33.7931    1404.10351      41.2918      41.0654
   1419.71325      45.4083      33.4369    1404.08825      41.4841      41.1523
   1419.69799      45.4667      33.5597    1404.07299      41.1753      41.0201
   1419.68273      45.0750      33.7817    1404.05773      40.8542      40.9585
   1419.66748      45.2078      33.9907    1404.04248      41.0593      41.6216
   1419.65222      45.1238      33.3953    1404.02722      41.2414      41.2186
   1419.63696      44.8955      34.0719    1404.01196      41.2030      41.5559
   1419.62170      45.1923      33.9190    1403.99670      41.3285      41.6904
   1419.60644      45.0061      33.8897    1403.98144      40.7119      41.3937
   1419.59118      45.0782      33.9815    1403.96618      40.8579      41.7269
   1419.57592      44.8662      34.1910    1403.95092      40.6834      41.9501
   1419.56066      45.2788      33.9269    1403.93566      40.9231      41.6925
   1419.54541      45.1719      34.3444    1403.92041      40.9150      42.4269
   1419.53015      44.7573      33.8176    1403.90515      41.4247      42.1371
   1419.51489      45.2526      34.0574    1403.88989      40.8975      42.3543
   1419.49963      45.1931      34.3253    1403.87463      40.3543      42.5121
   1419.48437      45.1650      34.2964    1403.85937      40.7683      42.1879
   1419.46911      44.9187      34.2401    1403.84411      40.5464      42.4120
   1419.45385      45.3526      34.3240    1403.82885      40.6540      42.5790
   1419.43859      44.5820      34.6149    1403.81359      40.5304      42.5904
   1419.42333      45.0855      34.2872    1403.79833      40.5303      42.6563
   1419.40808      45.4982      34.1631    1403.78308      40.7246      43.2433
   1419.39282      45.1750      34.3831    1403.76782      40.7008      42.8527
   1419.37756      45.0700      34.3795    1403.75256      40.7789      43.4533
   1419.36230      45.4139      34.2917    1403.73730      40.3199      43.0074
   1419.34704      45.0573      34.4282    1403.72204      40.5048      43.2100
   1419.33178      45.0800      34.9595    1403.70678      40.5440      43.9052
   1419.31652      45.0815      34.7831    1403.69152      40.0160      43.7396
   1419.30126      44.8272      34.7807    1403.67626      40.5109      43.5288
   1419.28601      44.6692      34.9738    1403.66101      40.7162      43.5992
   1419.27075      45.5635      35.1955    1403.64575      40.0501      44.3220
   1419.25549      44.9364      34.7812    1403.63049      40.7935      44.3640
   1419.24023      44.6418      35.1081    1403.61523      40.8132      44.2905
   1419.22497      45.0895      34.8033    1403.59997      39.9970      44.0984
   1419.20971      45.0168      34.8851    1403.58471      40.1276      44.3166
   1419.19445      45.0598      35.1346    1403.56945      40.0454      44.1943
   1419.17919      44.6849      35.4646    1403.55419      39.9917      44.3616
   1419.16394      44.6719      34.9005    1403.53894      40.4952      45.0992
   1419.14868      45.2532      35.1345    1403.52368      40.1644      44.4082
   1419.13342      45.2649      34.9888    1403.50842      40.2304      44.8453
   1419.11816      44.5360      35.3274    1403.49316      39.8568      44.4207
   1419.10290      44.7413      35.1864    1403.47790      39.9161      45.1348
   1419.08764      45.0770      35.4981    1403.46264      40.1412      45.2848
   1419.07238      45.1699      35.6874    1403.44738      40.2147      45.1404
   1419.05712      45.1444      35.5226    1403.43212      40.1274      45.7644
   1419.04187      45.1277      35.5775    1403.41687      39.8292      45.9317
   1419.02661      45.2660      35.7208    1403.40161      40.1509      45.4457
   1419.01135      44.5731      35.8007    1403.38635      40.1403      45.9298
   1418.99609      44.4304      35.6671    1403.37109      40.1801      46.1776
   1418.98083      44.4877      35.7423    1403.35583      39.9803      46.1038
   1418.96557      44.4941      35.9619    1403.34057      39.9084      46.4213
   1418.95031      44.4461      35.7329    1403.32531      39.8915      46.3655
   1418.93505      44.4940      35.9620    1403.31005      40.0467      46.4559
   1418.91979      44.7086      36.2160    1403.29479      40.1610      47.2070
   1418.90454      44.9728      36.1316    1403.27954      40.0182      46.4755
   1418.88928      44.7081      36.5300    1403.26428      39.8890      46.4677
   1418.87402      44.4605      35.9465    1403.24902      40.0911      46.9537
   1418.85876      44.7763      36.0995    1403.23376      40.1470      47.0128
   1418.84350      44.2716      36.2100    1403.21850      39.8863      47.2138
   1418.82824      44.6899      36.0446    1403.20324      39.9070      47.2713
   1418.81298      44.5049      36.5894    1403.18798      40.1921      47.2760
   1418.79772      44.7855      36.3988    1403.17272      40.0435      47.4623
   1418.78247      44.1114      36.5029    1403.15747      40.2453      47.5797
   1418.76721      44.4259      36.5931    1403.14221      40.4773      47.6094
   1418.75195      44.8785      36.7535    1403.12695      39.8230      47.7535
   1418.73669      44.7241      37.0029    1403.11169      39.9909      48.2461
   1418.72143      44.4227      36.7106    1403.09643      39.8144      47.5827
   1418.70617      44.3264      36.7095    1403.08117      39.8875      47.9607
   1418.69091      44.6239      36.9024    1403.06591      40.4754      47.8208
   1418.67565      44.2515      36.7777    1403.05065      40.3064      48.6845
   1418.66040      44.3484      37.1198    1403.03540      40.0960      48.4212
   1418.64514      44.3843      37.2208    1403.02014      40.0975      48.1154
   1418.62988      44.6925      36.8523    1403.00488      40.0104      48.8031
   1418.61462      44.1973      37.3947    1402.98962      40.4910      48.9399
   1418.59936      44.4384      37.3106    1402.97436      39.8336      48.5095
   1418.58410      44.7754      37.3342    1402.95910      39.8736      49.1064
   1418.56884      44.0769      37.5227    1402.94384      40.2544      49.4763
   1418.55358      44.6535      37.2525    1402.92858      40.1984      49.1523
   1418.53833      44.2027      37.7363    1402.91333      40.0155      49.3962
   1418.52307      44.3751      37.3499    1402.89807      40.0435      49.4763
   1418.50781      43.7910      37.5486    1402.88281      40.0885      49.6987
   1418.49255      44.3551      37.7483    1402.86755      40.1433      50.1261
   1418.47729      44.3863      37.9960    1402.85229      40.2849      49.4555
   1418.46203      44.1682      37.6657    1402.83703      40.1872      50.2304
   1418.44677      43.8357      37.8630    1402.82177      40.2402      50.6475
   1418.43151      43.7641      38.1758    1402.80651      40.0335      50.5095
   1418.41625      44.3860      37.9733    1402.79125      40.3781      50.6873
   1418.40100      44.3134      37.9115    1402.77600      40.4221      50.6846
   1418.38574      44.3169      37.9929    1402.76074      40.1074      51.2090
   1418.37048      43.7135      38.4418    1402.74548      40.4999      50.4535
   1418.35522      44.4326      38.1220    1402.73022      40.0866      51.3795
   1418.33996      44.1401      38.3325    1402.71496      40.1651      51.9313
   1418.32470      44.0857      38.2728    1402.69970      40.3273      51.5219
   1418.30944      43.8997      38.6884    1402.68444      40.0361      51.5056
   1418.29418      44.0912      38.4470    1402.66918      40.3081      51.4345
   1418.27893      44.2469      39.1866    1402.65393      39.9874      51.7593
   1418.26367      44.0343      38.8526    1402.63867      39.9445      52.2970
   1418.24841      44.0011      38.9143    1402.62341      40.2982      51.6714
   1418.23315      44.1387      39.1543    1402.60815      40.0644      52.3875
   1418.21789      44.2083      39.0762    1402.59289      40.5790      52.0642
   1418.20263      44.0103      39.3361    1402.57763      40.6227      52.6177
   1418.18737      43.8591      39.0445    1402.56237      40.2915      52.0299
   1418.17211      43.7738      39.1814    1402.54711      40.4460      51.7083
   1418.15686      44.1057      39.3847    1402.53186      40.3425      52.8719
   1418.14160      44.4447      39.4363    1402.51660      40.5954      53.2258
   1418.12634      44.3753      39.3987    1402.50134      40.5993      53.0107
   1418.11108      44.2348      39.0591    1402.48608      40.1491      52.7977
   1418.09582      43.8133      39.2177    1402.47082      40.3068      53.1067
   1418.08056      43.5991      39.2151    1402.45556      40.2868      53.1328
   1418.06530      43.8882      39.7010    1402.44030      40.7653      53.6770
   1418.05004      44.1842      39.5739    1402.42504      40.4284      53.8744
   1418.03479      44.1679      39.7707    1402.40979      40.4174      53.7917
   1418.01953      43.7787      39.7683    1402.39453      40.6868      54.1286
   1418.00427      44.0526      40.0802    1402.37927      40.6340      54.0693
   1417.98901      43.6775      39.7019    1402.36401      40.5819      54.0305
   1417.97375      44.1300      39.9772    1402.34875      41.0363      54.5545
   1417.95849      43.9067      40.4937    1402.33349      40.7458      54.7084
   1417.94323      43.9104      39.8504    1402.31823      40.3778      54.3145
   1417.92797      43.6420      39.7969    1402.30297      40.8908      55.4339
   1417.91271      43.8561      40.4435    1402.28771      40.9783      55.0503
   1417.89746      43.5456      41.2010    1402.27246      41.3909      54.6038
   1417.88220      43.7460      40.2448    1402.25720      41.1139      55.3822
   1417.86694      44.0783      40.5551    1402.24194      41.0922      55.7067
   1417.85168      43.7675      40.2708    1402.22668      40.9565      55.6171
   1417.83642      43.2634      40.6211    1402.21142      40.3361      55.7507
   1417.82116      43.7919      40.6960    1402.19616      40.8925      55.8549
   1417.80590      43.8355      40.7681    1402.18090      41.0422      55.7454
   1417.79064      43.6471      40.8785    1402.16564      41.1922      55.9433
   1417.77539      43.9984      40.8055    1402.15039      41.2929      56.1990
   1417.76013      43.4935      41.0103    1402.13513      41.1248      56.5662
   1417.74487      43.8773      41.3107    1402.11987      41.2308      56.5948
   1417.72961      43.8920      40.8377    1402.10461      41.3919      56.4133
   1417.71435      43.1479      41.3867    1402.08935      41.3733      57.0498
   1417.69909      43.4817      41.4124    1402.07409      40.9940      56.4821
   1417.68383      43.4015      41.4723    1402.05883      41.4947      56.8818
   1417.66857      43.7851      41.8070    1402.04357      41.9123      56.5607
   1417.65332      43.3111      41.5853    1402.02832      41.1810      57.0825
   1417.63806      43.4006      42.1402    1402.01306      41.3137      57.3766
   1417.62280      43.3075      41.4640    1401.99780      41.5808      57.3542
   1417.60754      43.5635      41.6613    1401.98254      41.2232      57.2553
   1417.59228      43.3504      41.8992    1401.96728      41.5276      57.7275
   1417.57702      43.4456      42.0127    1401.95202      41.6501      57.3122
   1417.56176      43.3823      42.0612    1401.93676      41.5282      58.2855
   1417.54650      43.5360      41.7465    1401.92150      41.7790      57.6751
   1417.53125      43.2851      42.1902    1401.90625      41.8452      58.0838
   1417.51599      43.5134      42.5672    1401.89099      41.6735      58.4880
   1417.50073      43.1316      42.6870    1401.87573      41.4499      58.3952
   1417.48547      43.2369      42.4796    1401.86047      41.8070      58.9325
   1417.47021      43.0040      42.8727    1401.84521      41.4120      58.3541
   1417.45495      43.2719      42.7977    1401.82995      41.6740      58.3174
   1417.43969      43.5044      42.6264    1401.81469      41.6196      58.7988
   1417.42443      43.3714      42.7650    1401.79943      41.9094      59.0901
   1417.40917      43.4891      42.6406    1401.78417      41.8043      58.7971
   1417.39392      43.4974      43.0420    1401.76892      41.7516      59.2507
   1417.37866      43.6695      42.6078    1401.75366      41.6597      59.3516
   1417.36340      43.2372      42.7324    1401.73840      41.9937      59.2999
   1417.34814      43.5239      43.7230    1401.72314      41.8731      59.4172
   1417.33288      42.9413      43.1755    1401.70788      41.5375      60.0591
   1417.31762      43.5436      43.3934    1401.69262      41.8023      60.2601
   1417.30236      43.4911      43.5177    1401.67736      42.0929      59.3315
   1417.28710      43.8171      43.1196    1401.66210      41.7639      59.7144
   1417.27185      43.4171      43.0734    1401.64685      41.6665      59.8657
   1417.25659      43.4665      43.3522    1401.63159      42.4091      60.1650
   1417.24133      42.9316      43.5823    1401.61633      41.6852      59.5132
   1417.22607      43.1882      43.0948    1401.60107      41.8448      60.3897
   1417.21081      43.2919      43.9144    1401.58581      41.9042      60.1948
   1417.19555      43.2636      43.5393    1401.57055      41.6645      60.5865
   1417.18029      42.9869      43.2902    1401.55529      41.6003      60.5810
   1417.16503      42.9775      43.7431    1401.54003      41.8412      61.1514
   1417.14978      43.4602      43.8274    1401.52478      41.9585      60.8486
   1417.13452      42.9571      44.0302    1401.50952      42.2221      61.1021
   1417.11926      42.9801      43.6564    1401.49426      42.1092      61.3263
   1417.10400      43.0704      43.7033    1401.47900      41.7113      60.3070
   1417.08874      42.4433      43.8347    1401.46374      41.9621      60.9022
   1417.07348      43.2842      43.5736    1401.44848      42.1029      60.8129
   1417.05822      43.0050      44.2302    1401.43322      41.8951      61.1875
   1417.04296      43.1378      44.2626    1401.41796      42.4699      61.3802
   1417.02771      43.1112      44.2865    1401.40271      41.7324      61.2591
   1417.01245      42.7874      44.4183    1401.38745      41.6393      61.6274
   1416.99719      43.3534      44.2526    1401.37219      41.7684      61.2501
   1416.98193      42.5470      44.2132    1401.35693      41.8308      61.0448
   1416.96667      42.8070      44.6071    1401.34167      41.4254      61.8251
   1416.95141      42.2803      44.3243    1401.32641      41.3087      61.3225
   1416.93615      42.8776      44.2714    1401.31115      41.5624      61.7681
   1416.92089      42.4029      44.5942    1401.29589      41.9943      61.5689
   1416.90563      42.6377      44.6246    1401.28063      41.8255      61.2710
   1416.89038      42.6877      44.6574    1401.26538      41.9708      61.8083
   1416.87512      42.6679      44.5242    1401.25012      41.7150      61.5520
   1416.85986      41.9509      44.7716    1401.23486      41.6343      62.3729
   1416.84460      42.1708      44.6442    1401.21960      41.2340      61.7711
   1416.82934      42.5302      44.5206    1401.20434      41.4386      62.5608
   1416.81408      42.5756      45.1651    1401.18908      41.4005      61.6995
   1416.79882      42.1986      44.3949    1401.17382      41.6261      62.2896
   1416.78356      42.3619      44.5742    1401.15856      41.5726      62.3261
   1416.76831      42.2482      45.0937    1401.14331      41.4805      61.7387
   1416.75305      42.5792      44.8596    1401.12805      41.4145      62.2460
   1416.73779      41.9638      45.0163    1401.11279      41.4630      62.0688
   1416.72253      42.2822      44.9509    1401.09753      41.2745      61.6046
   1416.70727      42.1156      45.0747    1401.08227      40.8058      62.1202
   1416.69201      42.1414      44.8132    1401.06701      41.2615      62.3493
   1416.67675      41.6706      44.8265    1401.05175      41.2281      62.0197
   1416.66149      41.9558      44.8860    1401.03649      40.7712      61.1617
   1416.64624      41.7277      45.2273    1401.02124      41.4424      61.9844
   1416.63098      41.3565      44.4597    1401.00598      41.2433      62.0928
   1416.61572      41.7298      44.9947    1400.99072      40.8456      62.3476
   1416.60046      41.2425      44.5273    1400.97546      40.8554      61.4613
   1416.58520      41.7168      45.0141    1400.96020      40.9203      61.8975
   1416.56994      41.6978      45.0449    1400.94494      40.8404      62.4552
   1416.55468      41.2264      44.6542    1400.92968      40.6125      62.4342
   1416.53942      41.2596      45.1175    1400.91442      40.3603      62.0394
   1416.52417      41.2843      44.6012    1400.89917      40.6100      62.2623
   1416.50891      41.3128      45.1425    1400.88391      40.1610      61.7252
   1416.49365      41.2856      44.9584    1400.86865      40.4410      61.5398
   1416.47839      41.2306      44.6189    1400.85339      40.1213      61.4098
   1416.46313      41.1887      44.7451    1400.83813      39.8033      61.9879
   1416.44787      41.1959      44.6717    1400.82287      40.3603      61.5789
   1416.43261      41.0461      44.5367    1400.80761      40.1157      61.0979
   1416.41735      40.9828      44.7140    1400.79235      40.2633      62.0751
   1416.40209      40.6077      44.5290    1400.77709      39.9227      61.2465
   1416.38684      40.8671      45.0598    1400.76184      39.8101      61.2916
   1416.37158      40.4331      44.9048    1400.74658      39.5614      60.8255
   1416.35632      40.4169      44.6761    1400.73132      39.2935      60.8470
   1416.34106      40.1858      44.6088    1400.71606      39.4013      61.8229
   1416.32580      40.1717      44.7109    1400.70080      39.4844      61.2134
   1416.31054      40.4553      44.6405    1400.68554      39.2134      61.2645
   1416.29528      40.5593      44.3781    1400.67028      39.4804      60.6723
   1416.28002      40.1275      43.9930    1400.65502      39.2430      60.7037
   1416.26477      39.9862      44.4851    1400.63977      38.9970      60.5900
   1416.24951      39.9676      44.2146    1400.62451      38.5182      60.7902
   1416.23425      39.7356      44.7415    1400.60925      38.8926      60.6662
   1416.21899      39.7758      44.0833    1400.59399      38.9542      60.0282
   1416.20373      39.8299      44.0136    1400.57873      38.4305      60.3413
   1416.18847      39.9246      44.3735    1400.56347      38.7436      60.1391
   1416.17321      39.7608      44.3183    1400.54821      37.9574      59.8880
   1416.15795      38.8546      43.9269    1400.53295      38.4709      60.2139
   1416.14270      39.0262      43.9108    1400.51770      38.1296      59.6065
   1416.12744      38.9615      43.8310    1400.50244      37.9718      59.5974
   1416.11218      39.2517      43.9846    1400.48718      37.6352      59.2102
   1416.09692      39.0705      43.6840    1400.47192      37.8175      59.9475
   1416.08166      38.6151      43.5670    1400.45666      37.3815      60.1400
   1416.06640      38.6399      43.4833    1400.44140      37.4330      59.3322
   1416.05114      38.6034      43.1918    1400.42614      37.5862      59.6161
   1416.03588      38.5754      43.4443    1400.41088      37.2125      58.5910
   1416.02062      38.0530      43.2361    1400.39562      36.9330      59.0605
   1416.00537      38.2799      43.3928    1400.38037      37.0237      58.8565
   1415.99011      37.7674      42.9697    1400.36511      36.5290      58.4261
   1415.97485      38.1039      42.6112    1400.34985      36.2948      58.4425
   1415.95959      37.5823      43.2601    1400.33459      36.2526      57.9228
   1415.94433      37.8471      42.8924    1400.31933      35.8464      57.2766
   1415.92907      37.4431      42.6480    1400.30407      36.0862      57.7819
   1415.91381      38.0070      42.4250    1400.28881      36.1006      57.7282
   1415.89855      37.2662      42.7167    1400.27355      36.2638      57.5498
   1415.88330      37.1228      42.2502    1400.25830      35.8547      57.4179
   1415.86804      37.4717      42.0538    1400.24304      35.7474      57.2157
   1415.85278      36.8588      42.2149    1400.22778      35.5981      57.1820
   1415.83752      36.8102      41.9993    1400.21252      35.7206      56.7972
   1415.82226      36.4621      41.8169    1400.19726      34.6846      56.7445
   1415.80700      36.5053      41.9139    1400.18200      34.7437      56.1094
   1415.79174      36.0986      41.6620    1400.16674      34.9720      55.9489
   1415.77648      36.5652      41.9641    1400.15148      34.5053      56.2419
   1415.76123      36.4458      41.4487    1400.13623      34.5585      55.8908
   1415.74597      35.9846      41.2466    1400.12097      34.0849      55.3455
   1415.73071      35.5939      41.5185    1400.10571      34.2477      55.1010
   1415.71545      35.6995      40.8167    1400.09045      33.6500      54.7125
   1415.70019      35.9204      40.8007    1400.07519      33.9509      54.9276
   1415.68493      35.4313      41.1228    1400.05993      33.4110      54.6083
   1415.66967      35.4893      41.0336    1400.04467      33.4920      54.6484
   1415.65441      35.2830      40.1856    1400.02941      33.3261      54.1060
   1415.63916      35.4398      40.2618    1400.01416      32.8472      53.7025
   1415.62390      34.8412      40.1746    1399.99890      32.9996      54.0366
   1415.60864      34.8600      40.4473    1399.98364      32.7947      53.7049
   1415.59338      34.5026      40.0507    1399.96838      32.8168      53.3718
   1415.57812      34.3846      39.8050    1399.95312      32.2716      53.1904
   1415.56286      34.2220      39.6189    1399.93786      32.2795      53.1257
   1415.54760      34.1699      39.3586    1399.92260      31.9697      52.8097
   1415.53234      34.0588      39.5049    1399.90734      31.9453      52.4387
   1415.51708      33.9011      38.9584    1399.89208      31.7491      51.7864
   1415.50183      33.6550      39.1570    1399.87683      31.4228      51.0485
   1415.48657      33.7897      39.1821    1399.86157      30.9172      51.1214
   1415.47131      33.0022      38.7400    1399.84631      31.2269      50.9906
   1415.45605      32.9247      38.4413    1399.83105      30.7698      51.3116
   1415.44079      32.8340      38.0969    1399.81579      30.5606      50.9988
   1415.42553      32.8368      38.0045    1399.80053      30.5069      50.3309
   1415.41027      32.6543      37.6690    1399.78527      30.3040      50.0163
   1415.39501      32.9080      37.7891    1399.77001      29.9993      49.6997
   1415.37976      32.7011      37.6018    1399.75476      29.8049      49.7320
   1415.36450      32.2688      37.1548    1399.73950      29.6036      49.0224
   1415.34924      32.1043      37.1145    1399.72424      29.8146      48.8085
   1415.33398      31.9839      37.3394    1399.70898      29.2768      48.4266
   1415.31872      31.6760      36.7388    1399.69372      29.1039      48.2831
   1415.30346      31.7161      36.3891    1399.67846      29.0903      48.3222
   1415.28820      31.4552      36.9058    1399.66320      28.8703      47.8877
   1415.27294      30.9917      36.1227    1399.64794      28.4049      47.6158
   1415.25769      31.0168      35.9933    1399.63269      28.6320      47.1299
   1415.24243      30.6390      35.9429    1399.61743      28.1400      47.0910
   1415.22717      30.6186      35.8676    1399.60217      28.2037      46.7506
   1415.21191      30.4520      35.6279    1399.58691      27.8518      46.5598
   1415.19665      30.4096      35.3259    1399.57165      27.9316      46.4016
   1415.18139      30.0095      35.2755    1399.55639      27.4464      45.9028
   1415.16613      30.0169      34.7793    1399.54113      27.2782      45.5813
   1415.15087      29.4957      34.9721    1399.52587      27.1962      45.4684
   1415.13562      29.2587      34.3944    1399.51062      27.1315      45.3279
   1415.12036      29.6343      34.6188    1399.49536      26.7587      45.0033
   1415.10510      29.3463      34.5286    1399.48010      26.6088      44.4591
   1415.08984      29.0473      34.3836    1399.46484      26.2296      44.4714
   1415.07458      28.7417      33.8376    1399.44958      26.5437      43.6069
   1415.05932      28.7724      33.6642    1399.43432      26.2409      43.0711
   1415.04406      28.5370      33.1729    1399.41906      25.8218      43.2031
   1415.02880      28.3775      33.1030    1399.40380      25.6953      43.3295
   1415.01354      27.9523      32.8597    1399.38854      25.5894      42.7464
   1414.99829      28.1904      33.0539    1399.37329      25.3853      42.6650
   1414.98303      27.5427      32.9337    1399.35803      25.6050      42.6285
   1414.96777      27.5534      32.2723    1399.34277      24.9633      41.8199
   1414.95251      27.3984      32.1350    1399.32751      25.0918      41.8976
   1414.93725      27.1965      32.0247    1399.31225      24.7513      41.2839
   1414.92199      27.3235      31.7750    1399.29699      24.8987      41.3835
   1414.90673      26.9680      31.6152    1399.28173      24.4804      41.1390
   1414.89147      26.9448      31.2744    1399.26647      24.3213      40.2708
   1414.87622      26.5424      30.8300    1399.25122      24.0422      40.6146
