#     FILENAME=Skynet_59007_gl32_45082_54666.A.spect.cal.txt
#     BASENAME=Skynet_59007_gl32_45082_54666
#      CONTROL=SKYNET
#     PROJCODE=Skynet_59007_gl32_45082
#     DATAROOT=/raid/scratch/cyborg/SkynetData
#      DATADIR=/raid/scratch/cyborg
#     DATADIR2=/raid/scratch/cyborg/SkynetData/Skynet_59007_gl32_45082/Cyborg
#     SCANNAME=2018_05_24_20
#     SRC_NAME=gl32
#     OBSERVER=reichart_2118
#     DATE_OBS=2020-06-07T04:29:29.420
#        OBSID=45082
#      SCANNUM=54666
#          MJD=59007.1871461
#          UTC=16169
#     SCANTYPE=track
#     DATAMODE=HIRES
#     RECEIVER=Rx1_2
#      OBSFREQ=1395.0000
# Actual_FREQ1=1421.8800,
# Actual_FREQ2=1406.2550
#    LO1Tuning=6856.2600
#     RFFILTER=1355_1435
#        OBSBW=-15.6250
#     EFFBANDW=15.6250
#        NCHAN=1024
#    STARTCHAN=51
#     STOPCHAN=972
#         TINT=0.3000
#         TBIN=0.00013107
#       ACCLEN=2048 
#     DURATION=18.30
#     EXPOSURE=2.10
#        FOCUS=37.071
#       RA,DEC=18:49:59.64, -00:49:46.92
#      RA(deg)=282.42875
#     DEC(deg)=-0.82346
#   WIDTH(deg)=0.0120x0.0057
#    AZIM(deg)=127.5337
#    ELEV(deg)=36.6647
#     COORDREF=LNG_LAT
#         HREF=32.0000
#         VREF=0.0000
#      RADESYS=FK5
#       OFFSYS=RADEC
#      EQUINOX=2000.00
#     IFATTENS=22.00, 6.00
#   BALANCELEV=1.200 
#   POWER_XLYR=[1.4, 1.37] 
#       VELDEF=RADI-OBS 
#     VELOCITY=0.000 
#         NPOL=2 
#      POLMODE=Linear 
#      POLTYPE=XXYY 
#      WARNING=None 
#     NOISECAL=HI 
#       PRECAL=2 
#      POSTCAL=2 
#     CRYOTEMP=15 
#      BOXTEMP=33 
#         TSYS=XX1:53.68, YY1:51.63
#         TSYS=XX2:48.06, YY2:56.62
#         TCAL=XX1:9.17, YY1:10.07
#         TCAL=XX2:9.16, YY2:9.99
# Calibrated spectra 
#                
#                
#Freq1(MHz)         XX1          YY1   Freq2(MHz)       XX2         YY2 
   1428.91430      26.4823      32.4895    1413.28930      27.8829      42.4339
   1428.89904      26.6817      32.5392    1413.27404      28.1258      42.1924
   1428.88378      26.6800      32.7569    1413.25878      28.1431      42.4936
   1428.86853      26.8488      32.8267    1413.24353      28.4458      43.7965
   1428.85327      26.7995      33.0999    1413.22827      28.6441      43.2645
   1428.83801      26.8916      33.2201    1413.21301      28.6899      43.8427
   1428.82275      26.8015      33.2751    1413.19775      28.8447      43.1683
   1428.80749      27.1280      33.8485    1413.18249      29.1622      43.6790
   1428.79223      27.0496      33.5417    1413.16723      29.2052      43.8413
   1428.77697      27.5275      33.9156    1413.15197      29.4991      44.0499
   1428.76171      27.6721      33.9221    1413.13671      29.5159      44.3447
   1428.74646      27.5753      34.1228    1413.12146      29.5758      44.6860
   1428.73120      27.6656      34.4726    1413.10620      29.9028      45.0310
   1428.71594      27.7508      34.9127    1413.09094      30.2918      45.4620
   1428.70068      27.8769      35.0584    1413.07568      30.1708      44.8374
   1428.68542      27.8729      34.8268    1413.06042      30.2291      45.9114
   1428.67016      27.9823      35.2938    1413.04516      30.3897      45.7188
   1428.65490      28.2428      35.6023    1413.02990      30.6095      45.7099
   1428.63964      28.4390      35.7844    1413.01464      30.6644      46.2449
   1428.62438      28.5128      35.5892    1412.99938      31.2134      46.5196
   1428.60913      28.8267      36.1456    1412.98413      31.2497      46.7404
   1428.59387      28.9624      36.4243    1412.96887      31.1586      46.9492
   1428.57861      29.1960      36.4647    1412.95361      31.2455      47.2867
   1428.56335      29.1785      36.8532    1412.93835      31.5102      46.9275
   1428.54809      29.1982      37.5471    1412.92309      31.8982      47.2200
   1428.53283      29.3372      37.2916    1412.90783      31.9389      47.4820
   1428.51757      29.7349      37.5783    1412.89257      32.2809      48.1355
   1428.50231      29.6776      38.0208    1412.87731      32.1989      48.6282
   1428.48706      29.6868      37.6405    1412.86206      32.4217      48.7078
   1428.47180      30.1692      38.3512    1412.84680      32.6030      48.8586
   1428.45654      29.9812      38.3252    1412.83154      32.4654      48.4923
   1428.44128      30.1238      38.6702    1412.81628      32.8073      49.1312
   1428.42602      30.3560      38.8550    1412.80102      32.9664      49.4154
   1428.41076      30.4160      39.1715    1412.78576      33.6284      49.4326
   1428.39550      30.8154      39.5854    1412.77050      33.4285      49.8979
   1428.38024      30.6223      39.7810    1412.75524      33.4974      50.2375
   1428.36499      30.7457      39.9922    1412.73999      33.9289      50.3290
   1428.34973      31.2257      40.2535    1412.72473      33.9840      50.6080
   1428.33447      31.0598      41.1341    1412.70947      34.1371      50.8793
   1428.31921      31.5677      40.6284    1412.69421      34.4948      51.0634
   1428.30395      31.3752      41.4676    1412.67895      34.4624      51.0615
   1428.28869      31.5120      41.1528    1412.66369      34.2938      51.0638
   1428.27343      31.7869      41.9529    1412.64843      35.2683      51.3451
   1428.25817      31.7661      41.6832    1412.63317      34.9883      52.4111
   1428.24292      31.9504      42.3932    1412.61792      35.2079      51.9704
   1428.22766      32.1513      42.4453    1412.60266      35.1079      52.7065
   1428.21240      32.5795      43.1370    1412.58740      35.7622      52.7900
   1428.19714      32.6078      42.9638    1412.57214      35.7140      52.9331
   1428.18188      32.8601      43.5376    1412.55688      35.5108      53.2097
   1428.16662      33.0183      43.8428    1412.54162      35.9011      53.7941
   1428.15136      33.0609      43.9113    1412.52636      36.1751      53.9316
   1428.13610      32.8301      43.8674    1412.51110      36.4271      53.9008
   1428.12084      33.2824      44.8701    1412.49584      36.5879      54.4433
   1428.10559      33.6411      44.3629    1412.48059      36.7623      54.5213
   1428.09033      33.6411      45.0160    1412.46533      36.4671      54.1933
   1428.07507      33.8918      44.9578    1412.45007      36.9688      54.6749
   1428.05981      33.9002      45.3850    1412.43481      36.6908      54.8763
   1428.04455      33.9512      45.4441    1412.41955      37.0634      54.8405
   1428.02929      34.0694      46.1456    1412.40429      37.4183      55.3338
   1428.01403      34.4206      46.1323    1412.38903      37.2454      55.2154
   1427.99877      34.5948      46.3501    1412.37377      37.7735      55.0807
   1427.98352      34.7016      46.3998    1412.35852      37.9758      55.7082
   1427.96826      34.6247      46.6909    1412.34326      37.6838      56.0624
   1427.95300      34.9359      46.9105    1412.32800      38.2996      56.4383
   1427.93774      34.9786      46.9989    1412.31274      38.3185      56.9185
   1427.92248      35.0377      47.6410    1412.29748      38.2496      56.4986
   1427.90722      34.9603      47.5427    1412.28222      38.3571      56.5839
   1427.89196      35.3890      47.5643    1412.26696      38.6562      57.0553
   1427.87670      35.4963      48.9934    1412.25170      38.7588      57.4638
   1427.86145      35.5287      49.3073    1412.23645      38.6837      57.4667
   1427.84619      35.7152      48.6606    1412.22119      38.6600      57.5955
   1427.83093      36.1419      49.2246    1412.20593      39.1774      57.4989
   1427.81567      36.0422      49.2339    1412.19067      39.6197      58.1012
   1427.80041      35.8466      49.3461    1412.17541      39.8921      57.4698
   1427.78515      36.2328      50.0681    1412.16015      39.9546      58.1744
   1427.76989      36.7417      50.1148    1412.14489      39.3736      58.6070
   1427.75463      36.9075      49.8914    1412.12963      39.9620      58.6509
   1427.73937      36.6617      50.8038    1412.11437      39.9824      58.9238
   1427.72412      36.8739      50.8210    1412.09912      39.8767      58.9405
   1427.70886      36.9199      51.0716    1412.08386      40.4900      59.2194
   1427.69360      37.2670      50.8789    1412.06860      40.3857      59.2037
   1427.67834      37.1899      50.8874    1412.05334      40.4351      59.0520
   1427.66308      37.2226      51.6661    1412.03808      40.3657      59.6949
   1427.64782      37.5300      52.0340    1412.02282      40.8465      60.4144
   1427.63256      37.6457      52.2270    1412.00756      40.4955      60.1441
   1427.61730      37.8641      52.4112    1411.99230      40.6171      60.1327
   1427.60205      37.9810      52.9023    1411.97705      41.0344      60.2628
   1427.58679      37.9703      52.9257    1411.96179      41.2537      60.2260
   1427.57153      38.0038      52.6291    1411.94653      41.2810      60.1428
   1427.55627      38.0090      53.0047    1411.93127      41.3377      60.6346
   1427.54101      38.5948      53.7433    1411.91601      41.7147      61.1538
   1427.52575      38.2200      54.2522    1411.90075      41.8421      60.5009
   1427.51049      38.6445      53.6298    1411.88549      41.6785      60.9183
   1427.49523      38.9003      54.1445    1411.87023      41.3665      61.3335
   1427.47998      38.4155      54.3409    1411.85498      41.8934      60.8359
   1427.46472      39.1119      53.8756    1411.83972      41.6342      60.9722
   1427.44946      39.2259      55.1498    1411.82446      42.1940      61.1264
   1427.43420      39.2911      54.8759    1411.80920      42.7357      60.7098
   1427.41894      39.1977      55.0051    1411.79394      42.5537      62.2229
   1427.40368      39.4353      55.0378    1411.77868      42.1115      61.9524
   1427.38842      39.7161      55.4314    1411.76342      42.6598      61.2874
   1427.37316      39.9373      55.5128    1411.74816      42.5221      61.6289
   1427.35791      39.8109      55.9239    1411.73291      42.7098      61.6203
   1427.34265      39.6841      55.3672    1411.71765      42.0601      61.8422
   1427.32739      39.8918      56.0755    1411.70239      42.5428      62.2088
   1427.31213      39.8753      55.9656    1411.68713      42.6730      61.8094
   1427.29687      40.5421      55.8392    1411.67187      43.1860      62.2297
   1427.28161      39.9934      56.7123    1411.65661      42.9664      61.5253
   1427.26635      40.4823      56.9277    1411.64135      42.7201      61.8968
   1427.25109      40.4257      56.9506    1411.62609      43.5543      62.3484
   1427.23583      40.5744      56.9009    1411.61083      42.8569      62.0293
   1427.22058      40.8500      57.3784    1411.59558      43.1352      62.1951
   1427.20532      40.7874      57.3858    1411.58032      43.3453      62.3468
   1427.19006      40.7129      57.0262    1411.56506      43.3854      62.8507
   1427.17480      40.7346      57.3733    1411.54980      43.2996      62.2626
   1427.15954      41.0593      57.8493    1411.53454      44.1347      62.8186
   1427.14428      40.9853      57.4369    1411.51928      43.5278      63.1561
   1427.12902      41.3358      57.6734    1411.50402      43.6356      63.3310
   1427.11376      41.2584      57.9528    1411.48876      42.9533      63.0407
   1427.09851      41.4280      58.2255    1411.47351      43.6927      63.0347
   1427.08325      41.3144      58.0959    1411.45825      43.7035      63.0957
   1427.06799      41.3270      58.3522    1411.44299      43.4382      62.2608
   1427.05273      41.4462      57.9872    1411.42773      44.1773      62.9990
   1427.03747      41.7105      58.3994    1411.41247      44.4133      63.1222
   1427.02221      41.9422      59.2667    1411.39721      44.3058      62.7976
   1427.00695      42.1630      58.7776    1411.38195      43.8164      62.8242
   1426.99169      41.8484      58.8825    1411.36669      43.8729      62.9877
   1426.97644      42.5366      59.6634    1411.35144      43.8320      62.9403
   1426.96118      41.5516      59.0581    1411.33618      44.1171      62.9874
   1426.94592      42.3391      59.4956    1411.32092      44.2252      62.9223
   1426.93066      42.5328      58.9910    1411.30566      43.9592      63.1215
   1426.91540      42.3079      59.3927    1411.29040      44.4078      62.8200
   1426.90014      42.4085      59.3438    1411.27514      44.2849      62.4718
   1426.88488      42.5514      59.7204    1411.25988      44.6373      62.6224
   1426.86962      42.4329      59.7573    1411.24462      44.5173      62.3234
   1426.85437      42.7996      59.3995    1411.22937      44.6844      62.8642
   1426.83911      42.8749      59.8572    1411.21411      44.4808      62.3730
   1426.82385      42.3248      59.5383    1411.19885      44.7393      62.2791
   1426.80859      42.8791      60.3209    1411.18359      44.5030      62.9776
   1426.79333      43.0525      59.3935    1411.16833      44.7457      62.6812
   1426.77807      42.6577      60.1742    1411.15307      44.8545      62.7156
   1426.76281      43.4015      59.9668    1411.13781      44.5571      63.0942
   1426.74755      43.0913      60.2440    1411.12255      44.8319      62.9298
   1426.73229      43.2766      59.1900    1411.10729      44.6814      63.0274
   1426.71704      43.5580      60.3394    1411.09204      44.1777      62.4504
   1426.70178      42.8513      60.3847    1411.07678      45.0593      62.3084
   1426.68652      43.2240      59.8858    1411.06152      45.1237      62.7404
   1426.67126      43.7806      60.0308    1411.04626      44.5702      62.3978
   1426.65600      43.6377      60.2273    1411.03100      44.7576      62.4813
   1426.64074      43.1628      60.3980    1411.01574      45.0654      62.4678
   1426.62548      43.6304      59.6346    1411.00048      44.5623      62.5122
   1426.61022      43.5198      60.5175    1410.98522      44.7987      61.9411
   1426.59497      43.9692      60.4631    1410.96997      45.5110      62.3299
   1426.57971      43.8423      60.3230    1410.95471      45.1264      62.3210
   1426.56445      43.9863      60.4361    1410.93945      45.0377      61.7789
   1426.54919      43.7696      59.6970    1410.92419      44.8191      62.3021
   1426.53393      44.0839      60.4169    1410.90893      44.8428      61.7185
   1426.51867      43.9278      60.2157    1410.89367      44.9918      61.2436
   1426.50341      43.9566      59.8555    1410.87841      45.1420      62.0116
   1426.48815      44.3672      61.0052    1410.86315      45.3001      61.8927
   1426.47290      43.9337      60.6198    1410.84790      45.4671      61.8474
   1426.45764      44.3403      60.8849    1410.83264      44.8380      61.6634
   1426.44238      44.5770      60.1961    1410.81738      45.1781      61.0948
   1426.42712      44.4363      60.4477    1410.80212      44.9428      61.2349
   1426.41186      44.5053      60.4510    1410.78686      45.0600      61.3017
   1426.39660      44.4828      60.4116    1410.77160      44.7619      61.7410
   1426.38134      44.2984      60.4603    1410.75634      44.7159      60.8509
   1426.36608      44.5895      60.2871    1410.74108      44.9863      61.5045
   1426.35083      44.4766      60.0498    1410.72583      45.0125      60.7814
   1426.33557      44.5425      60.8577    1410.71057      45.6416      61.1356
   1426.32031      44.3685      60.8255    1410.69531      45.0809      60.3858
   1426.30505      44.3033      60.0377    1410.68005      44.9452      60.7186
   1426.28979      44.7019      60.2074    1410.66479      45.0492      60.2790
   1426.27453      45.2141      59.7259    1410.64953      45.1424      60.9061
   1426.25927      44.9983      60.1411    1410.63427      44.9260      60.5425
   1426.24401      45.0156      60.6244    1410.61901      44.9069      60.3680
   1426.22875      44.8617      60.5828    1410.60375      45.3386      60.1962
   1426.21350      44.9177      60.7649    1410.58850      45.1638      60.0246
   1426.19824      45.1024      60.3972    1410.57324      45.0869      60.9927
   1426.18298      45.2127      60.1119    1410.55798      45.2978      60.7159
   1426.16772      45.5205      59.5732    1410.54272      44.9811      60.2529
   1426.15246      45.2957      59.6350    1410.52746      45.3173      59.2433
   1426.13720      45.0371      60.1106    1410.51220      45.1395      60.1207
   1426.12194      45.2862      59.9089    1410.49694      45.8665      59.4356
   1426.10668      45.2213      59.8795    1410.48168      45.2625      59.4385
   1426.09143      45.3870      59.5708    1410.46643      44.9299      59.3627
   1426.07617      45.6930      59.6721    1410.45117      46.0359      59.0143
   1426.06091      45.7262      60.1329    1410.43591      45.6843      59.2205
   1426.04565      45.8012      59.7497    1410.42065      45.1787      59.9112
   1426.03039      45.6077      59.2984    1410.40539      45.0633      59.0442
   1426.01513      45.9916      59.6187    1410.39013      45.2772      59.1685
   1425.99987      46.0454      59.7829    1410.37487      45.1290      59.6012
   1425.98461      46.1996      58.9294    1410.35961      45.0854      58.5740
   1425.96936      45.9528      60.1623    1410.34436      45.0502      59.0774
   1425.95410      45.5690      59.2465    1410.32910      45.1050      58.7187
   1425.93884      46.1224      59.1964    1410.31384      45.1840      58.2112
   1425.92358      46.1443      59.2190    1410.29858      45.3792      58.3913
   1425.90832      46.0656      59.0922    1410.28332      45.2378      58.5662
   1425.89306      46.3970      59.4494    1410.26806      45.2147      57.5631
   1425.87780      45.8702      59.2117    1410.25280      44.7122      58.0637
   1425.86254      46.5830      58.6012    1410.23754      44.9650      58.0219
   1425.84729      46.3117      59.0513    1410.22229      44.8292      57.9632
   1425.83203      46.2266      58.7683    1410.20703      45.0587      57.6878
   1425.81677      46.6540      58.8233    1410.19177      45.2382      58.2002
   1425.80151      46.5892      58.8661    1410.17651      45.4116      57.0756
   1425.78625      46.5540      59.0304    1410.16125      45.3342      57.6444
   1425.77099      46.6489      58.0697    1410.14599      45.3370      56.4173
   1425.75573      46.9625      58.3021    1410.13073      45.5266      57.2323
   1425.74047      46.6473      58.2041    1410.11547      45.4262      57.2634
   1425.72521      46.5674      58.2380    1410.10021      45.7456      57.3345
   1425.70996      46.9609      58.9045    1410.08496      44.9534      56.7273
   1425.69470      46.9122      58.2993    1410.06970      44.9030      56.7340
   1425.67944      46.6120      58.9699    1410.05444      45.5099      56.6190
   1425.66418      47.1028      58.6273    1410.03918      45.5771      56.8753
   1425.64892      47.0917      58.1864    1410.02392      45.3751      56.8252
   1425.63366      47.2335      58.4731    1410.00866      45.0920      56.5480
   1425.61840      47.0025      57.4442    1409.99340      45.1625      56.0538
   1425.60314      47.0522      57.7357    1409.97814      45.6538      56.3782
   1425.58789      47.0559      57.6013    1409.96289      44.9337      56.0373
   1425.57263      47.2646      57.7080    1409.94763      45.5603      55.8937
   1425.55737      47.1592      57.6349    1409.93237      45.3888      55.7876
   1425.54211      47.4607      57.7558    1409.91711      45.6863      55.5045
   1425.52685      47.3767      57.4760    1409.90185      45.7452      55.6415
   1425.51159      47.4503      57.8711    1409.88659      45.7014      55.3228
   1425.49633      47.8485      57.8053    1409.87133      45.1006      55.1044
   1425.48107      47.4189      57.6084    1409.85607      45.2901      55.1967
   1425.46582      47.3418      57.5715    1409.84082      45.2705      55.1575
   1425.45056      47.6760      57.3849    1409.82556      45.1722      55.1217
   1425.43530      47.3437      56.6675    1409.81030      45.9073      54.7624
   1425.42004      47.6519      57.0152    1409.79504      45.3047      54.3445
   1425.40478      47.7986      56.9136    1409.77978      45.1861      54.3635
   1425.38952      47.7273      57.3563    1409.76452      45.7473      54.3774
   1425.37426      48.2583      56.8930    1409.74926      45.1252      53.9624
   1425.35900      47.5716      57.0984    1409.73400      45.7381      53.6833
   1425.34375      47.6784      56.4406    1409.71875      45.9131      54.2817
   1425.32849      48.2455      56.3632    1409.70349      45.5031      53.9327
   1425.31323      47.9390      56.5369    1409.68823      45.6201      53.3989
   1425.29797      48.1547      56.8300    1409.67297      45.7018      53.9588
   1425.28271      48.4758      56.2703    1409.65771      45.6238      53.5768
   1425.26745      48.0600      55.9577    1409.64245      45.3587      53.5770
   1425.25219      48.3117      55.7007    1409.62719      45.6237      53.5334
   1425.23693      48.9983      56.6545    1409.61193      45.7336      53.3482
   1425.22167      48.4056      55.7747    1409.59667      45.5710      53.3638
   1425.20642      48.6368      55.9581    1409.58142      45.9436      53.4133
   1425.19116      48.9004      56.0665    1409.56616      45.3204      53.3298
   1425.17590      48.5354      56.1945    1409.55090      45.5454      52.6819
   1425.16064      48.7137      55.4118    1409.53564      45.5875      52.6585
   1425.14538      48.6364      56.0480    1409.52038      45.6071      52.3535
   1425.13012      49.2578      55.8734    1409.50512      46.2438      52.6712
   1425.11486      49.0145      55.4671    1409.48986      45.3300      52.1577
   1425.09960      48.9501      55.4365    1409.47460      45.6362      52.6264
   1425.08435      48.6918      55.2686    1409.45935      45.5602      52.9718
   1425.06909      48.8367      55.2784    1409.44409      46.1622      52.1348
   1425.05383      49.3824      54.7495    1409.42883      45.4899      51.8081
   1425.03857      49.0163      54.9847    1409.41357      45.7394      51.7551
   1425.02331      48.7788      54.7763    1409.39831      46.2198      52.2873
   1425.00805      49.2090      55.2762    1409.38305      45.8780      51.6742
   1424.99279      49.2046      55.1132    1409.36779      46.1057      51.6928
   1424.97753      49.5005      54.4245    1409.35253      46.4552      51.8460
   1424.96228      49.3421      54.5868    1409.33728      45.7461      51.7041
   1424.94702      49.7028      55.6785    1409.32202      46.0714      51.8294
   1424.93176      49.6085      54.6600    1409.30676      46.3027      50.4263
   1424.91650      49.9084      54.8152    1409.29150      45.9675      50.9878
   1424.90124      49.3590      54.5982    1409.27624      46.1157      51.1102
   1424.88598      49.5798      53.8749    1409.26098      45.8911      50.7876
   1424.87072      49.6638      54.3774    1409.24572      45.7742      50.8269
   1424.85546      50.3590      54.5687    1409.23046      46.3890      50.6514
   1424.84021      49.9561      54.2236    1409.21521      46.1253      50.7604
   1424.82495      50.0721      54.1557    1409.19995      46.3855      50.4658
   1424.80969      49.9734      54.2407    1409.18469      46.0025      50.5127
   1424.79443      50.0518      54.3725    1409.16943      46.1655      50.0334
   1424.77917      50.3992      53.7307    1409.15417      46.3044      50.0748
   1424.76391      50.2577      53.6401    1409.13891      46.0452      50.1634
   1424.74865      50.1090      54.1246    1409.12365      46.1625      49.9568
   1424.73339      51.0966      53.6162    1409.10839      46.2843      49.8676
   1424.71813      50.4867      53.8204    1409.09313      46.5764      49.6158
   1424.70288      51.1965      53.7096    1409.07788      46.9095      49.4095
   1424.68762      50.7786      53.5590    1409.06262      46.6790      49.9375
   1424.67236      50.9605      52.9205    1409.04736      46.2152      49.3432
   1424.65710      50.9549      53.3420    1409.03210      46.9546      49.7684
   1424.64184      50.9093      53.0242    1409.01684      46.5594      49.1918
   1424.62658      51.0442      53.4343    1409.00158      46.3038      49.6013
   1424.61132      51.0050      52.8286    1408.98632      46.8193      49.3233
   1424.59606      50.9099      53.3857    1408.97106      47.1774      48.5731
   1424.58081      50.9090      51.9979    1408.95581      46.4591      48.6657
   1424.56555      50.7397      52.6133    1408.94055      46.5343      48.7419
   1424.55029      51.5175      52.8305    1408.92529      46.4075      48.8507
   1424.53503      51.2174      52.4691    1408.91003      46.7187      49.1148
   1424.51977      51.5981      52.8679    1408.89477      46.8873      48.9492
   1424.50451      51.4331      52.4262    1408.87951      46.9965      48.6335
   1424.48925      51.8086      52.4830    1408.86425      46.4709      48.8974
   1424.47399      51.5307      52.4529    1408.84899      47.3124      48.3919
   1424.45874      51.4971      52.3911    1408.83374      47.4533      48.1774
   1424.44348      51.9529      52.5856    1408.81848      46.9633      48.0865
   1424.42822      51.7932      52.7582    1408.80322      46.9067      48.3923
   1424.41296      51.7952      51.9340    1408.78796      47.2395      48.3326
   1424.39770      52.1138      51.8231    1408.77270      46.7050      48.0502
   1424.38244      52.1281      51.9858    1408.75744      47.1929      47.8393
   1424.36718      52.1149      52.0347    1408.74218      47.2764      47.5981
   1424.35192      52.4885      51.4123    1408.72692      46.9010      47.2049
   1424.33667      52.4458      51.4825    1408.71167      46.7808      47.8731
   1424.32141      52.0193      52.3031    1408.69641      47.1173      47.5222
   1424.30615      52.5383      51.3626    1408.68115      47.1487      47.8513
   1424.29089      52.8084      51.0140    1408.66589      47.4934      47.1546
   1424.27563      52.4676      51.5451    1408.65063      48.1035      47.7331
   1424.26037      52.5817      51.5813    1408.63537      47.9338      47.4940
   1424.24511      51.8804      50.9414    1408.62011      47.2042      47.4972
   1424.22985      52.7430      50.8272    1408.60485      47.6210      47.0090
   1424.21459      52.2471      50.6871    1408.58959      47.4541      47.4681
   1424.19934      52.8450      50.9048    1408.57434      47.3379      47.0254
   1424.18408      52.7879      51.4792    1408.55908      47.6818      46.6428
   1424.16882      53.0085      50.5788    1408.54382      47.5685      47.2343
   1424.15356      53.4739      50.6279    1408.52856      47.7108      46.4010
   1424.13830      53.0515      50.7502    1408.51330      48.3240      46.5867
   1424.12304      53.2599      50.5862    1408.49804      48.3095      46.2172
   1424.10778      52.9441      50.4679    1408.48278      48.3296      46.0913
   1424.09252      52.9953      50.3963    1408.46752      47.6563      46.0576
   1424.07727      53.8727      50.6196    1408.45227      48.2694      46.0867
   1424.06201      52.7851      50.4742    1408.43701      47.7975      45.8651
   1424.04675      53.6022      50.7736    1408.42175      48.1464      46.1211
   1424.03149      53.3430      50.6008    1408.40649      48.1425      46.2478
   1424.01623      53.0149      49.7507    1408.39123      48.3739      45.5731
   1424.00097      53.5771      49.9895    1408.37597      48.3948      45.8109
   1423.98571      53.3715      49.7162    1408.36071      47.9918      45.7499
   1423.97045      53.4468      49.9246    1408.34545      48.4821      45.9990
   1423.95520      53.5256      49.6096    1408.33020      48.3530      45.5965
   1423.93994      53.6553      49.5735    1408.31494      48.5353      45.2109
   1423.92468      53.4029      49.5475    1408.29968      48.7671      45.7928
   1423.90942      54.4264      49.5467    1408.28442      47.9254      45.1747
   1423.89416      53.9283      49.2639    1408.26916      48.6177      45.4322
   1423.87890      53.9592      49.8108    1408.25390      48.1822      44.5228
   1423.86364      53.6481      49.7344    1408.23864      48.5925      45.1103
   1423.84838      54.1088      48.9041    1408.22338      48.7943      45.1965
   1423.83312      54.2409      49.6263    1408.20812      48.9866      45.7132
   1423.81787      54.4384      49.2171    1408.19287      49.2037      45.0307
   1423.80261      53.9075      48.9803    1408.17761      48.2816      44.7994
   1423.78735      54.0266      48.7868    1408.16235      49.0686      44.7433
   1423.77209      54.2150      48.9090    1408.14709      48.6612      44.8438
   1423.75683      54.0912      48.5695    1408.13183      48.8176      45.0391
   1423.74157      54.4933      48.5595    1408.11657      48.9736      44.6093
   1423.72631      53.9278      47.9693    1408.10131      48.6312      44.7486
   1423.71105      54.2566      48.5208    1408.08605      48.9289      44.0545
   1423.69580      54.3640      48.7673    1408.07080      48.8874      44.7756
   1423.68054      54.4814      48.5833    1408.05554      49.0275      44.6011
   1423.66528      54.4277      48.4105    1408.04028      49.0467      44.5705
   1423.65002      54.8221      48.4498    1408.02502      49.0481      44.0730
   1423.63476      53.9518      48.3587    1408.00976      49.7544      44.2271
   1423.61950      54.4025      48.0512    1407.99450      49.4206      44.2260
   1423.60424      55.1820      48.2091    1407.97924      49.2568      44.0795
   1423.58898      54.8723      48.1611    1407.96398      49.5818      44.3986
   1423.57373      54.3279      48.1508    1407.94873      49.9796      44.3780
   1423.55847      54.6174      47.3658    1407.93347      49.1402      43.7418
   1423.54321      55.0515      47.6651    1407.91821      49.7733      43.6471
   1423.52795      55.0414      47.5576    1407.90295      48.9530      44.0749
   1423.51269      55.1160      47.6339    1407.88769      50.0706      43.6053
   1423.49743      54.8617      47.1764    1407.87243      49.9371      43.9096
   1423.48217      54.3708      46.9762    1407.85717      49.8838      43.8051
   1423.46691      55.1303      47.6706    1407.84191      49.6154      43.9917
   1423.45166      54.6942      47.2810    1407.82666      50.3136      43.5613
   1423.43640      55.2212      47.0359    1407.81140      50.2257      43.9113
   1423.42114      54.8475      47.4117    1407.79614      50.1634      43.5565
   1423.40588      55.6320      46.8834    1407.78088      49.7621      43.7034
   1423.39062      55.0124      47.0634    1407.76562      50.5661      43.2813
   1423.37536      55.4470      46.6883    1407.75036      50.3160      43.4177
   1423.36010      55.2859      46.7752    1407.73510      49.7136      43.4090
   1423.34484      55.7020      46.1519    1407.71984      50.1304      42.9740
   1423.32958      55.8267      46.3467    1407.70458      50.1728      43.4989
   1423.31433      55.0690      46.6849    1407.68933      49.7544      43.3931
   1423.29907      55.2940      46.9315    1407.67407      50.6032      43.5315
   1423.28381      55.6464      46.0377    1407.65881      49.9768      42.9778
   1423.26855      54.8654      46.6820    1407.64355      50.5153      43.0921
   1423.25329      55.0779      45.9762    1407.62829      50.5022      42.8795
   1423.23803      55.4542      46.1573    1407.61303      50.4550      43.1022
   1423.22277      55.9871      46.0146    1407.59777      50.8361      42.5508
   1423.20751      54.9677      46.4081    1407.58251      50.5936      42.7064
   1423.19226      55.7742      46.2760    1407.56726      51.3568      42.4962
   1423.17700      56.1240      46.3020    1407.55200      50.6069      42.7437
   1423.16174      56.1652      45.6041    1407.53674      51.0049      42.6847
   1423.14648      55.7497      45.5653    1407.52148      51.3437      42.6759
   1423.13122      55.9882      46.0052    1407.50622      51.4061      42.5312
   1423.11596      55.6704      45.5921    1407.49096      50.7515      42.4416
   1423.10070      55.6069      45.4223    1407.47570      50.9057      42.5585
   1423.08544      56.4217      46.1004    1407.46044      51.2360      42.4265
   1423.07019      55.9702      45.4365    1407.44519      51.0516      41.9548
   1423.05493      56.1652      45.9504    1407.42993      50.9994      42.4878
   1423.03967      56.3803      45.4509    1407.41467      51.1490      42.3283
   1423.02441      56.2499      45.2494    1407.39941      50.6295      41.6893
   1423.00915      55.9115      45.0821    1407.38415      51.6079      42.1128
   1422.99389      56.6537      45.2033    1407.36889      51.4822      42.6722
   1422.97863      56.3769      44.8783    1407.35363      51.4701      42.3503
   1422.96337      55.6378      45.1473    1407.33837      51.7040      42.1096
   1422.94812      55.9027      45.1735    1407.32312      51.5336      42.1212
   1422.93286      55.5047      44.9509    1407.30786      51.4003      41.7228
   1422.91760      55.6176      44.8459    1407.29260      51.8317      42.1421
   1422.90234      56.2253      44.5686    1407.27734      51.8518      41.9354
   1422.88708      55.9232      44.4443    1407.26208      51.8117      42.4573
   1422.87182      55.7011      44.4876    1407.24682      52.0412      42.1393
   1422.85656      56.0840      44.4605    1407.23156      51.3418      42.0394
   1422.84130      56.5492      44.1991    1407.21630      51.6833      41.9647
   1422.82604      56.1487      44.3792    1407.20104      51.8437      42.2125
   1422.81079      55.8318      44.7079    1407.18579      52.5819      41.9138
   1422.79553      55.7354      44.5333    1407.17053      52.0013      41.7899
   1422.78027      56.2715      44.2929    1407.15527      52.0442      42.2452
   1422.76501      55.8901      43.9801    1407.14001      51.9203      42.1993
   1422.74975      55.7101      44.4988    1407.12475      52.2613      41.5829
   1422.73449      55.8262      44.0261    1407.10949      51.9677      41.8350
   1422.71923      56.1611      44.0287    1407.09423      52.5530      42.1148
   1422.70397      56.5922      44.1198    1407.07897      52.4074      41.7593
   1422.68872      56.4959      43.7657    1407.06372      52.3927      41.9346
   1422.67346      55.8751      44.4194    1407.04846      52.5870      41.8479
   1422.65820      55.9707      43.4234    1407.03320      52.5130      41.6528
   1422.64294      56.4818      43.6255    1407.01794      52.3840      41.5023
   1422.62768      56.2976      43.3101    1407.00268      52.3390      41.7612
   1422.61242      55.9685      43.4847    1406.98742      52.7809      41.3645
   1422.59716      56.0321      43.6624    1406.97216      52.7899      41.7412
   1422.58190      56.7958      43.4187    1406.95690      52.6338      41.5471
   1422.56665      56.5214      43.1556    1406.94165      52.5591      41.9400
   1422.55139      56.5061      43.0891    1406.92639      52.7751      41.8705
   1422.53613      56.6384      43.2095    1406.91113      53.4388      41.6065
   1422.52087      56.4961      42.9686    1406.89587      53.1640      41.7889
   1422.50561      56.8987      43.2197    1406.88061      53.3455      41.5429
   1422.49035      56.3322      43.0329    1406.86535      52.9049      41.6884
   1422.47509      57.2962      43.0584    1406.85009      53.2397      41.6226
   1422.45983      56.2663      42.7534    1406.83483      53.1168      41.1717
   1422.44458      56.8730      43.0862    1406.81958      52.2113      41.4502
   1422.42932      56.6350      42.5561    1406.80432      52.9849      41.8996
   1422.41406      56.3488      42.8394    1406.78906      53.2922      41.7767
   1422.39880      56.3403      42.5392    1406.77380      53.2674      41.1852
   1422.38354      56.4723      42.8136    1406.75854      53.2212      41.5549
   1422.36828      56.3169      42.5357    1406.74328      53.8281      41.7341
   1422.35302      55.7103      43.0525    1406.72802      53.7097      41.5985
   1422.33776      56.6902      42.7279    1406.71276      53.3079      41.8975
   1422.32250      55.8821      42.2736    1406.69750      53.5537      41.1568
   1422.30725      56.5704      42.3321    1406.68225      53.1285      41.6650
   1422.29199      56.7220      42.4163    1406.66699      53.1535      41.5420
   1422.27673      56.3639      42.6792    1406.65173      53.7154      41.8568
   1422.26147      56.6049      42.7245    1406.63647      53.7626      41.3160
   1422.24621      56.7095      42.8252    1406.62121      53.8884      41.5053
   1422.23095      56.3327      42.0198    1406.60595      53.6882      41.4005
   1422.21569      56.2378      41.9362    1406.59069      54.3667      41.6523
   1422.20043      57.1735      42.1632    1406.57543      53.7392      41.1526
   1422.18518      56.3734      41.6408    1406.56018      53.5476      41.5807
   1422.16992      56.6337      42.0233    1406.54492      54.0737      41.3880
   1422.15466      56.6257      42.4519    1406.52966      54.2227      41.9268
   1422.13940      56.8642      41.9013    1406.51440      53.8040      41.3185
   1422.12414      57.0444      41.9033    1406.49914      53.8421      41.3631
   1422.10888      56.2007      42.2173    1406.48388      54.3444      41.5698
   1422.09362      57.0014      41.7960    1406.46862      54.3954      41.6374
   1422.07836      56.5198      42.3770    1406.45336      54.3470      41.8145
   1422.06311      56.8956      41.7899    1406.43811      53.9576      41.6966
   1422.04785      56.7692      42.0441    1406.42285      54.2519      41.3583
   1422.03259      57.6623      41.7894    1406.40759      54.4221      41.7153
   1422.01733      57.4924      41.7631    1406.39233      54.0785      41.1965
   1422.00207      56.8173      41.8406    1406.37707      54.1812      41.9260
   1421.98681      56.8160      41.8969    1406.36181      54.1067      41.0868
   1421.97155      57.0254      41.8624    1406.34655      54.1030      41.8865
   1421.95629      56.8659      41.7433    1406.33129      53.5418      41.7269
   1421.94104      56.7151      41.6780    1406.31604      54.4306      41.7167
   1421.92578      56.8466      41.8775    1406.30078      53.7388      41.8090
   1421.91052      56.4395      40.9858    1406.28552      54.0889      42.0533
   1421.89526      56.8236      41.2344    1406.27026      54.1594      42.5180
   1421.88000      56.9957      41.3248    1406.25500      54.3375      42.4312
   1421.86474      57.1677      41.4153    1406.23974      54.5155      42.3444
   1421.84948      56.5782      41.6377    1406.22448      54.7369      41.7857
   1421.83422      57.1953      41.4266    1406.20922      53.9894      42.0163
   1421.81896      56.6688      41.3155    1406.19396      54.8462      41.7007
   1421.80371      57.3311      40.9646    1406.17871      54.4190      42.2994
   1421.78845      57.0005      41.1848    1406.16345      54.5755      41.9107
   1421.77319      56.8291      41.2007    1406.14819      54.3655      42.0398
   1421.75793      56.7330      41.1519    1406.13293      54.6712      42.1890
   1421.74267      56.8601      41.3854    1406.11767      54.2806      42.5061
   1421.72741      57.1858      40.9593    1406.10241      54.7683      42.1659
   1421.71215      56.8983      41.3741    1406.08715      54.2390      42.2049
   1421.69689      56.7014      41.2587    1406.07189      54.3198      42.1010
   1421.68164      57.2999      41.0466    1406.05664      54.5350      42.1338
   1421.66638      57.4147      40.7978    1406.04138      55.0089      42.1587
   1421.65112      56.8860      41.1903    1406.02612      54.7196      42.2703
   1421.63586      57.2906      41.1307    1406.01086      55.0134      42.7825
   1421.62060      56.5612      40.7330    1405.99560      55.1877      42.5902
   1421.60534      57.1380      41.1212    1405.98034      54.7018      42.2038
   1421.59008      56.9540      40.9986    1405.96508      55.5677      42.4571
   1421.57482      57.1622      41.1136    1405.94982      55.5291      42.5033
   1421.55957      56.8256      41.0845    1405.93457      55.6270      42.7629
   1421.54431      57.4923      41.1006    1405.91931      54.9684      42.6554
   1421.52905      57.0858      40.7787    1405.90405      54.8406      42.6697
   1421.51379      57.3361      41.0933    1405.88879      55.2263      43.0517
   1421.49853      56.6633      41.1680    1405.87353      55.2707      42.6153
   1421.48327      57.7473      41.2436    1405.85827      55.1957      42.6574
   1421.46801      57.5984      40.9674    1405.84301      54.7852      43.1342
   1421.45275      57.1731      41.0255    1405.82775      55.0754      42.8941
   1421.43750      57.3141      40.8891    1405.81250      55.7385      42.5461
   1421.42224      57.3974      40.8517    1405.79724      55.4481      42.6636
   1421.40698      57.2177      41.0265    1405.78198      54.9936      43.3700
   1421.39172      57.4015      40.3019    1405.76672      55.6364      43.1715
   1421.37646      56.9514      40.7124    1405.75146      55.3241      43.4949
   1421.36120      57.8384      40.8290    1405.73620      55.8039      42.7632
   1421.34594      57.2971      40.9952    1405.72094      55.3357      42.9591
   1421.33068      57.6202      40.9079    1405.70568      55.5160      43.6513
   1421.31542      57.6519      40.7537    1405.69042      55.4610      43.2685
   1421.30017      57.4872      41.0066    1405.67517      54.7246      43.6090
   1421.28491      57.2186      40.7655    1405.65991      55.3088      43.4054
   1421.26965      57.7815      41.0037    1405.64465      55.6267      43.5114
   1421.25439      57.2418      40.5732    1405.62939      55.1411      43.6294
   1421.23913      57.9369      40.7841    1405.61413      55.7275      43.2927
   1421.22387      57.3614      40.9070    1405.59887      55.2675      43.3075
   1421.20861      57.7295      40.6508    1405.58361      55.3260      43.4054
   1421.19335      57.6302      40.9563    1405.56835      55.9717      44.1053
   1421.17810      58.1938      40.5149    1405.55310      55.2390      43.1699
   1421.16284      57.1190      40.6061    1405.53784      55.3019      43.5971
   1421.14758      57.2588      40.6932    1405.52258      55.1127      44.4845
   1421.13232      57.8071      40.6327    1405.50732      55.4857      44.0321
   1421.11706      57.7259      40.6040    1405.49206      55.4031      44.4860
   1421.10180      57.8194      41.1204    1405.47680      55.5269      44.4086
   1421.08654      57.8478      41.0038    1405.46154      55.8585      44.4448
   1421.07128      57.5003      41.2352    1405.44628      55.3500      44.4702
   1421.05603      57.6624      40.9057    1405.43103      55.6141      44.3475
   1421.04077      57.6653      40.7041    1405.41577      55.4414      44.9628
   1421.02551      57.8211      41.1091    1405.40051      55.3656      44.8032
   1421.01025      57.8970      40.8709    1405.38525      55.8233      44.4983
   1420.99499      57.2863      41.0153    1405.36999      55.3993      44.4752
   1420.97973      57.3774      41.1232    1405.35473      55.5129      45.0856
   1420.96447      58.0427      40.9407    1405.33947      55.1150      44.8906
   1420.94921      57.7992      41.0992    1405.32421      55.0862      44.6524
   1420.93396      58.0471      40.7982    1405.30896      55.9261      44.5088
   1420.91870      58.3272      40.9959    1405.29370      55.6760      45.3048
   1420.90344      57.8129      41.2677    1405.27844      56.1221      44.9177
   1420.88818      58.2333      41.1782    1405.26318      55.0991      45.1429
   1420.87292      58.3224      41.4974    1405.24792      55.0500      45.2712
   1420.85766      58.7517      41.6735    1405.23266      54.9435      44.8166
   1420.84240      58.9150      41.7873    1405.21740      55.7793      45.0797
   1420.82714      60.9835      42.6757    1405.20214      55.1583      45.6330
   1420.81188      62.3595      43.8482    1405.18688      54.9589      45.7588
   1420.79663      65.5469      45.9454    1405.17163      55.6918      45.5909
   1420.78137      70.3959      49.5006    1405.15637      55.2022      45.8187
   1420.76611      77.4699      53.9525    1405.14111      54.8245      45.9126
   1420.75085      82.8489      57.7205    1405.12585      55.2295      46.0951
   1420.73559      87.8960      60.4130    1405.11059      54.9229      46.2732
   1420.72033      89.5851      62.0246    1405.09533      55.4238      46.3208
   1420.70507      89.5123      62.0058    1405.08007      55.1230      45.9889
   1420.68981      87.4613      59.7218    1405.06481      55.3397      46.3303
   1420.67456      85.5868      59.0083    1405.04956      54.6337      46.1356
   1420.65930      89.7128      61.4283    1405.03430      54.9700      46.2489
   1420.64404      95.1251      65.1305    1405.01904      54.6586      46.0560
   1420.62878      98.8565      67.1327    1405.00378      54.5863      46.7594
   1420.61352      97.0703      66.1473    1404.98852      54.7075      46.7214
   1420.59826      93.9204      65.0394    1404.97326      55.0352      46.5835
   1420.58300      95.6308      65.5797    1404.95800      54.5125      47.0047
   1420.56774     100.1831      69.6703    1404.94274      54.9985      46.6533
   1420.55249     113.5039      78.1042    1404.92749      54.9874      47.2034
   1420.53723     122.0069      83.6511    1404.91223      54.7332      47.1747
   1420.52197     119.4263      80.9629    1404.89697      55.2824      46.8526
   1420.50671     126.4342      87.1449    1404.88171      55.0695      47.5177
   1420.49145     141.7125      96.4881    1404.86645      54.4618      47.1444
   1420.47619     148.9785      99.2648    1404.85119      55.0509      47.1365
   1420.46093     154.2208     106.4138    1404.83593      55.1352      47.7252
   1420.44567     162.0985     109.1757    1404.82067      54.6337      47.5844
   1420.43042     160.9740     110.9041    1404.80542      54.5689      47.8515
   1420.41516     152.6734     103.5258    1404.79016      54.8879      47.0727
   1420.39990     142.5531      98.3042    1404.77490      54.7153      47.7874
   1420.38464     137.4448      93.7397    1404.75964      54.8996      47.8036
   1420.36938     132.9931      91.7303    1404.74438      54.9404      47.6733
   1420.35412     134.6768      91.7073    1404.72912      54.5993      47.8213
   1420.33886     136.5972      93.4144    1404.71386      54.6886      48.6147
   1420.32360     136.1603      93.0091    1404.69860      54.2392      48.2617
   1420.30834     128.3796      87.7081    1404.68334      55.0478      48.6252
   1420.29309     114.0882      79.7706    1404.66809      54.3376      48.8583
   1420.27783     102.8857      71.0088    1404.65283      54.5675      48.7432
   1420.26257      92.5734      65.1268    1404.63757      54.4759      48.9244
   1420.24731      93.0027      65.5996    1404.62231      54.7849      48.8820
   1420.23205     104.4532      71.9405    1404.60705      54.6051      48.7360
   1420.21679     118.2445      81.6818    1404.59179      53.6912      49.2185
   1420.20153     133.1025      90.8934    1404.57653      53.8373      49.5291
   1420.18627     138.6627      96.1054    1404.56127      54.6502      49.3095
   1420.17102     139.8347      95.5620    1404.54602      55.1046      49.5344
   1420.15576     133.4563      93.2420    1404.53076      54.1115      49.8012
   1420.14050     129.1855      88.4434    1404.51550      54.0629      49.9030
   1420.12524     127.6443      89.0809    1404.50024      54.2776      50.1314
   1420.10998     134.3559      92.6472    1404.48498      54.2990      50.2977
   1420.09472     140.4166      96.8023    1404.46972      53.7346      49.5802
   1420.07946     146.4300     100.6743    1404.45446      53.6822      49.8920
   1420.06420     147.3324     100.6163    1404.43920      54.1957      49.8902
   1420.04895     135.2705      94.7087    1404.42395      54.3181      50.0551
   1420.03369     117.7784      82.8278    1404.40869      53.8066      50.8278
   1420.01843     100.5695      70.8284    1404.39343      54.0364      50.2868
   1420.00317      84.4823      59.9292    1404.37817      53.8799      51.0717
   1419.98791      72.2101      52.0319    1404.36291      54.1065      50.8191
   1419.97265      65.4206      47.6993    1404.34765      53.6860      50.9092
   1419.95739      62.1585      45.7488    1404.33239      53.9155      51.5439
   1419.94213      60.6563      44.5242    1404.31713      53.9631      50.9570
   1419.92687      60.3601      43.9872    1404.30187      53.7586      51.0525
   1419.91162      58.8049      43.8418    1404.28662      53.3986      50.9276
   1419.89636      58.6721      43.1062    1404.27136      53.6919      51.2425
   1419.88110      58.4286      43.1940    1404.25610      53.2543      51.4684
   1419.86584      58.3167      43.0011    1404.24084      53.9021      51.2372
   1419.85058      58.0171      43.0690    1404.22558      53.0100      51.6438
   1419.83532      57.9214      43.4404    1404.21032      53.4595      51.5251
   1419.82006      58.1051      43.3274    1404.19506      53.5251      51.9696
   1419.80480      58.0859      43.1025    1404.17980      53.3678      51.3579
   1419.78955      58.2667      43.5399    1404.16455      53.8045      52.4165
   1419.77429      57.8291      43.3892    1404.14929      53.2655      52.1629
   1419.75903      57.2344      42.9757    1404.13403      52.9613      52.3504
   1419.74377      57.9664      42.6939    1404.11877      53.4665      52.3123
   1419.72851      57.3945      43.2719    1404.10351      52.6797      52.6942
   1419.71325      57.9110      43.2239    1404.08825      53.2178      52.3128
   1419.69799      58.1281      43.8437    1404.07299      53.0672      52.6903
   1419.68273      58.2738      43.3947    1404.05773      53.2591      52.4528
   1419.66748      57.2180      43.3561    1404.04248      53.0211      53.3484
   1419.65222      57.4935      43.5757    1404.02722      52.5732      53.4823
   1419.63696      57.6351      43.3460    1404.01196      52.5220      53.2115
   1419.62170      57.6771      43.1972    1403.99670      53.3578      54.1411
   1419.60644      57.6650      43.4039    1403.98144      52.5281      53.8606
   1419.59118      57.6085      43.2959    1403.96618      52.3622      54.0361
   1419.57592      57.5521      43.8908    1403.95092      52.8386      54.1516
   1419.56066      57.7115      43.9238    1403.93566      52.7280      54.2494
   1419.54541      57.8384      43.7574    1403.92041      52.5411      54.0302
   1419.53015      57.1052      43.7069    1403.90515      52.8163      54.1472
   1419.51489      57.3541      43.5542    1403.88989      53.0544      54.0709
   1419.49963      57.5582      43.6836    1403.87463      52.7125      54.9848
   1419.48437      57.2181      44.0774    1403.85937      52.6741      54.7189
   1419.46911      57.0853      44.4763    1403.84411      51.7844      54.9637
   1419.45385      57.0293      44.1382    1403.82885      52.5519      55.6665
   1419.43859      57.5511      44.0631    1403.81359      52.2382      54.8325
   1419.42333      57.4245      44.2523    1403.79833      52.2342      54.9258
   1419.40808      57.3635      43.8955    1403.78308      52.6412      55.7089
   1419.39282      57.4994      44.3202    1403.76782      52.3676      55.8139
   1419.37756      57.0873      44.2602    1403.75256      52.8083      55.3000
   1419.36230      56.9207      44.4740    1403.73730      52.2377      56.1021
   1419.34704      56.8969      44.1938    1403.72204      52.0722      56.3641
   1419.33178      57.2461      44.5737    1403.70678      52.2830      56.1489
   1419.31652      57.6258      44.5494    1403.69152      52.5160      55.7453
   1419.30126      57.2475      44.6348    1403.67626      52.0344      56.6328
   1419.28601      57.2821      45.3094    1403.66101      51.9915      56.4522
   1419.27075      56.7217      44.8497    1403.64575      52.4580      56.4658
   1419.25549      57.3853      44.6582    1403.63049      52.2793      57.1443
   1419.24023      57.1687      44.8342    1403.61523      52.2921      56.4496
   1419.22497      56.7429      45.2225    1403.59997      51.9226      57.4022
   1419.20971      57.1864      44.9537    1403.58471      51.7543      57.1010
   1419.19445      57.0810      45.1199    1403.56945      51.4866      57.5389
   1419.17919      56.8019      45.2202    1403.55419      51.7995      57.1067
   1419.16394      57.4185      45.3072    1403.53894      51.7349      57.7300
   1419.14868      57.0560      45.3308    1403.52368      52.3839      57.4907
   1419.13342      56.9100      45.0953    1403.50842      51.8885      57.8412
   1419.11816      56.7562      45.3647    1403.49316      51.7377      58.1867
   1419.10290      57.5344      45.4977    1403.47790      52.3479      58.5658
   1419.08764      56.2898      45.1940    1403.46264      52.0478      58.8105
   1419.07238      57.1896      45.0299    1403.44738      51.6729      58.4448
   1419.05712      56.7829      45.6937    1403.43212      52.0641      58.6100
   1419.04187      56.3601      45.9701    1403.41687      51.6711      58.3768
   1419.02661      56.8380      46.0773    1403.40161      51.5062      59.4895
   1419.01135      56.5063      46.3569    1403.38635      51.8025      59.1998
   1418.99609      57.0831      45.8090    1403.37109      51.7497      58.9915
   1418.98083      56.7458      46.6177    1403.35583      51.6623      59.0911
   1418.96557      56.0997      46.1032    1403.34057      51.2760      59.9269
   1418.95031      57.3857      46.0805    1403.32531      52.1525      59.4323
   1418.93505      56.1351      46.4634    1403.31005      52.0633      60.3229
   1418.91979      56.5786      46.7365    1403.29479      51.3286      59.7109
   1418.90454      56.6598      46.4785    1403.27954      52.0612      59.9322
   1418.88928      56.6967      46.4369    1403.26428      52.0627      60.9480
   1418.87402      57.1888      46.2867    1403.24902      51.4471      60.3601
   1418.85876      56.6339      46.5328    1403.23376      51.7035      60.2395
   1418.84350      56.3622      46.7158    1403.21850      51.2486      60.9049
   1418.82824      56.3103      47.1101    1403.20324      51.7425      61.3188
   1418.81298      56.1457      47.2084    1403.18798      52.2107      60.5700
   1418.79772      55.9156      46.9681    1403.17272      51.5996      62.1360
   1418.78247      56.4614      47.5368    1403.15747      51.6267      61.7185
   1418.76721      55.8555      47.3026    1403.14221      51.9759      61.4226
   1418.75195      56.3558      47.3999    1403.12695      51.1729      61.6737
   1418.73669      56.2731      47.3474    1403.11169      51.9688      62.0119
   1418.72143      56.1116      47.3598    1403.09643      51.9613      61.8675
   1418.70617      55.8242      46.9127    1403.08117      51.5184      62.9055
   1418.69091      56.4931      47.3052    1403.06591      51.6903      62.5908
   1418.67565      56.2838      47.7034    1403.05065      51.4807      62.0332
   1418.66040      56.1970      47.5559    1403.03540      51.7396      62.5342
   1418.64514      56.0270      48.1200    1403.02014      51.8020      63.2483
   1418.62988      56.2877      48.0007    1403.00488      51.8915      63.2302
   1418.61462      56.2422      47.5977    1402.98962      51.3625      63.8232
   1418.59936      55.9627      48.0357    1402.97436      51.5312      63.2891
   1418.58410      56.8764      47.8831    1402.95910      51.4461      63.1004
   1418.56884      56.1111      48.3743    1402.94384      51.8244      63.8154
   1418.55358      56.4580      48.0245    1402.92858      51.8923      64.0389
   1418.53833      55.7727      48.3230    1402.91333      51.4482      65.2281
   1418.52307      55.6839      48.1319    1402.89807      51.6598      64.3921
   1418.50781      56.0756      48.6408    1402.88281      51.1767      64.3484
   1418.49255      55.5786      48.9160    1402.86755      51.8697      64.3316
   1418.47729      55.8493      49.2114    1402.85229      51.8260      64.5165
   1418.46203      56.4728      48.9427    1402.83703      52.0759      65.4574
   1418.44677      55.8225      48.8002    1402.82177      51.0194      65.1877
   1418.43151      55.8427      48.8971    1402.80651      52.0322      65.2252
   1418.41625      55.5204      49.1344    1402.79125      51.8363      65.1579
   1418.40100      55.9218      49.4967    1402.77600      51.5094      65.9252
   1418.38574      56.1263      49.1911    1402.76074      51.2755      65.8937
   1418.37048      55.5770      49.1987    1402.74548      52.3797      65.9227
   1418.35522      55.7075      48.7674    1402.73022      51.9663      66.3323
   1418.33996      55.9559      49.2827    1402.71496      51.7492      66.7774
   1418.32470      55.6818      49.6769    1402.69970      52.0047      66.5598
   1418.30944      55.6612      49.6254    1402.68444      51.9343      66.4143
   1418.29418      55.7609      49.9304    1402.66918      51.9701      67.1384
   1418.27893      55.5102      49.6594    1402.65393      51.4804      67.1759
   1418.26367      55.9789      49.3553    1402.63867      52.0244      67.2468
   1418.24841      55.6918      50.0090    1402.62341      51.5883      67.2452
   1418.23315      55.3949      50.1844    1402.60815      52.2682      67.6193
   1418.21789      55.2485      49.8093    1402.59289      52.4269      67.7140
   1418.20263      55.2658      50.2031    1402.57763      52.5417      67.6945
   1418.18737      55.5948      50.5096    1402.56237      52.2347      68.0215
   1418.17211      55.2310      50.4700    1402.54711      51.8467      68.2397
   1418.15686      55.5591      50.6739    1402.53186      51.6165      68.3603
   1418.14160      55.5078      50.4684    1402.51660      52.1235      68.4365
   1418.12634      55.4361      51.1403    1402.50134      51.7817      69.1815
   1418.11108      55.7061      50.8978    1402.48608      52.4052      69.4410
   1418.09582      55.9132      51.4343    1402.47082      52.2178      68.9856
   1418.08056      55.8143      50.8481    1402.45556      51.8321      69.4987
   1418.06530      55.2793      50.9997    1402.44030      52.2041      69.3733
   1418.05004      55.7161      50.5713    1402.42504      52.2624      69.8604
   1418.03479      55.2781      52.2593    1402.40979      52.7666      69.8272
   1418.01953      55.8084      51.1879    1402.39453      52.3422      70.4389
   1418.00427      55.7715      51.3366    1402.37927      52.5213      69.6403
   1417.98901      55.3790      51.4629    1402.36401      52.3385      70.8298
   1417.97375      55.6013      51.2664    1402.34875      52.9906      70.7020
   1417.95849      55.0616      52.0350    1402.33349      52.5155      71.1050
   1417.94323      55.5641      51.6575    1402.31823      52.9442      71.0610
   1417.92797      55.7356      52.0429    1402.30297      52.9703      70.8866
   1417.91271      55.3848      52.0204    1402.28771      52.5854      71.7733
   1417.89746      55.6948      52.4366    1402.27246      52.4186      71.6308
   1417.88220      55.0179      52.0254    1402.25720      52.3403      71.5646
   1417.86694      55.0217      52.5676    1402.24194      53.1327      72.1707
   1417.85168      55.2429      52.2287    1402.22668      53.2221      72.2167
   1417.83642      55.1495      52.2397    1402.21142      52.6354      71.6552
   1417.82116      55.2930      52.6716    1402.19616      52.8781      72.4402
   1417.80590      55.5042      53.0181    1402.18090      52.4833      72.6942
   1417.79064      55.0539      52.8334    1402.16564      52.6610      72.5687
   1417.77539      55.2563      52.9558    1402.15039      53.2936      72.6208
   1417.76013      55.3864      53.1176    1402.13513      53.3266      73.8812
   1417.74487      55.1700      53.2527    1402.11987      53.5417      73.0680
   1417.72961      55.2740      53.0070    1402.10461      53.6372      72.9469
   1417.71435      55.1312      53.8208    1402.08935      52.4341      73.8587
   1417.69909      56.2820      53.5137    1402.07409      53.5165      73.4429
   1417.68383      55.5717      53.5554    1402.05883      53.1376      73.7573
   1417.66857      55.6165      53.8241    1402.04357      53.1968      74.2577
   1417.65332      55.4191      53.8951    1402.02832      53.0789      74.2780
   1417.63806      55.5293      53.9179    1402.01306      52.9230      74.4274
   1417.62280      55.2356      53.5696    1401.99780      53.3371      75.0767
   1417.60754      55.5276      54.3738    1401.98254      53.3273      74.7915
   1417.59228      54.9410      54.0220    1401.96728      53.6744      74.6864
   1417.57702      54.9080      54.5132    1401.95202      53.5867      75.0880
   1417.56176      55.6458      54.4871    1401.93676      53.3650      75.3133
   1417.54650      55.2019      54.2658    1401.92150      53.3847      74.9605
   1417.53125      54.8094      54.7719    1401.90625      53.2199      75.3436
   1417.51599      54.9142      54.3694    1401.89099      54.0429      75.8163
   1417.50073      55.1171      54.7198    1401.87573      53.5179      76.2950
   1417.48547      55.6582      54.8393    1401.86047      53.2456      75.6107
   1417.47021      55.8402      55.4006    1401.84521      53.5399      76.5869
   1417.45495      55.3480      55.0520    1401.82995      53.6480      76.8505
   1417.43969      55.4676      55.3848    1401.81469      53.6899      76.7937
   1417.42443      55.1666      54.4358    1401.79943      53.6814      77.3003
   1417.40917      55.6365      55.1466    1401.78417      53.5692      75.9355
   1417.39392      55.1515      54.9885    1401.76892      53.5017      77.5680
   1417.37866      55.0115      55.5397    1401.75366      53.4563      77.8487
   1417.36340      55.4938      55.5502    1401.73840      53.5744      76.7885
   1417.34814      55.5220      55.7019    1401.72314      53.7708      78.0240
   1417.33288      55.3165      55.6099    1401.70788      53.3770      78.1387
   1417.31762      55.4637      55.8150    1401.69262      53.0350      77.2089
   1417.30236      54.7548      55.9374    1401.67736      53.6482      77.9921
   1417.28710      54.5613      56.6196    1401.66210      53.9747      78.3360
   1417.27185      55.0785      55.9634    1401.64685      53.7373      78.7320
   1417.25659      54.5202      56.1041    1401.63159      53.9652      78.0470
   1417.24133      55.2015      56.0132    1401.61633      53.8494      79.4975
   1417.22607      54.9573      56.2789    1401.60107      53.5385      78.4548
   1417.21081      55.5523      56.7139    1401.58581      53.6147      78.7735
   1417.19555      55.2039      56.6601    1401.57055      54.1294      78.4531
   1417.18029      54.7842      56.6910    1401.55529      53.8052      78.7279
   1417.16503      54.6995      56.0700    1401.54003      53.6826      78.8989
   1417.14978      54.9254      56.6921    1401.52478      54.4053      79.3760
   1417.13452      55.2857      56.7265    1401.50952      53.5146      79.4253
   1417.11926      55.2239      56.5238    1401.49426      54.3591      78.8246
   1417.10400      54.7101      57.0845    1401.47900      54.2402      79.1290
   1417.08874      54.4919      56.9720    1401.46374      53.9441      79.3754
   1417.07348      54.9311      56.7650    1401.44848      53.3304      79.8444
   1417.05822      54.4322      57.1070    1401.43322      54.4179      79.7493
   1417.04296      54.5887      57.4819    1401.41796      53.7294      80.1374
   1417.02771      54.3682      56.9180    1401.40271      53.7102      80.2050
   1417.01245      54.8397      57.1204    1401.38745      53.3986      80.0318
   1416.99719      54.9721      57.1558    1401.37219      53.4131      79.1740
   1416.98193      54.5013      56.9590    1401.35693      53.4759      80.3942
   1416.96667      54.5209      57.7013    1401.34167      53.5091      80.0958
   1416.95141      54.8793      57.2619    1401.32641      53.4365      80.2484
   1416.93615      54.4647      57.9609    1401.31115      53.7793      80.4548
   1416.92089      54.4309      57.4841    1401.29589      53.7580      80.2224
   1416.90563      55.1246      57.7966    1401.28063      53.6656      80.6586
   1416.89038      54.5346      57.6620    1401.26538      53.3557      80.6100
   1416.87512      54.4412      57.9580    1401.25012      52.8552      80.2746
   1416.85986      54.6677      57.8463    1401.23486      53.0378      80.8883
   1416.84460      54.3501      57.9383    1401.21960      52.9779      80.7112
   1416.82934      54.8263      58.0251    1401.20434      53.0393      80.9730
   1416.81408      54.5814      58.4863    1401.18908      53.3097      80.6907
   1416.79882      53.9981      58.6629    1401.17382      52.4612      81.2889
   1416.78356      54.7466      57.9146    1401.15856      53.3919      81.0840
   1416.76831      54.0524      57.9093    1401.14331      52.7706      80.6241
   1416.75305      54.2688      58.3356    1401.12805      52.7315      81.1995
   1416.73779      53.9378      57.8027    1401.11279      52.9595      81.0145
   1416.72253      53.8473      58.7662    1401.09753      52.9420      81.2798
   1416.70727      53.8947      57.9581    1401.08227      53.0437      80.5521
   1416.69201      54.1401      57.9861    1401.06701      52.6444      80.6575
   1416.67675      54.5098      58.1249    1401.05175      52.9405      80.1987
   1416.66149      53.9213      57.9467    1401.03649      52.8245      81.1726
   1416.64624      54.6788      57.8474    1401.02124      52.9390      81.0152
   1416.63098      54.0062      58.4270    1401.00598      52.6712      81.3474
   1416.61572      53.7344      58.0737    1400.99072      52.4332      81.0244
   1416.60046      54.2544      58.5812    1400.97546      52.7805      80.6357
   1416.58520      53.5799      57.7504    1400.96020      52.4334      81.3052
   1416.56994      53.1636      58.2644    1400.94494      52.4166      80.1547
   1416.55468      53.4244      58.4962    1400.92968      52.1983      81.3833
   1416.53942      53.4584      58.4329    1400.91442      51.8232      80.8160
   1416.52417      53.1144      58.1497    1400.89917      51.7010      80.8009
   1416.50891      53.4355      57.8355    1400.88391      51.5531      80.2919
   1416.49365      53.4932      58.3855    1400.86865      52.1171      79.9658
   1416.47839      52.8029      58.2649    1400.85339      52.1115      80.7820
   1416.46313      53.1773      58.6929    1400.83813      52.3292      80.6397
   1416.44787      53.0610      58.3243    1400.82287      51.5733      80.5790
   1416.43261      53.1626      58.3486    1400.80761      51.2610      80.8255
   1416.41735      53.0198      58.2811    1400.79235      51.1682      81.0034
   1416.40209      52.6823      57.9592    1400.77709      51.2627      80.1750
   1416.38684      52.8679      58.1129    1400.76184      51.1603      80.6231
   1416.37158      52.2518      57.9755    1400.74658      51.0005      80.4553
   1416.35632      52.6292      58.0153    1400.73132      50.4871      79.9501
   1416.34106      52.5515      57.6914    1400.71606      50.5450      79.7530
   1416.32580      52.2756      58.1239    1400.70080      50.4282      80.2616
   1416.31054      52.0020      57.7172    1400.68554      51.2039      79.2381
   1416.29528      52.4632      58.2553    1400.67028      49.6599      79.5883
   1416.28002      51.8935      58.2965    1400.65502      50.5648      79.5578
   1416.26477      51.6825      58.3891    1400.63977      50.5672      79.3476
   1416.24951      51.9062      58.0820    1400.62451      49.7736      79.8871
   1416.23425      52.0342      57.4484    1400.60925      49.6555      79.3340
   1416.21899      51.7557      58.2757    1400.59399      49.6768      79.1414
   1416.20373      51.1772      57.5474    1400.57873      49.5588      79.4978
   1416.18847      51.4689      57.4903    1400.56347      49.1872      79.0788
   1416.17321      51.4531      57.4027    1400.54821      48.7814      79.1920
   1416.15795      51.2356      57.4323    1400.53295      49.4759      78.5962
   1416.14270      51.4250      57.5815    1400.51770      48.5682      78.2172
   1416.12744      50.4497      57.0750    1400.50244      48.9717      77.7785
   1416.11218      51.1595      57.5797    1400.48718      48.7711      78.7275
   1416.09692      50.3887      56.8531    1400.47192      48.0612      77.7899
   1416.08166      50.2116      56.8861    1400.45666      48.0825      77.7979
   1416.06640      50.4302      56.8507    1400.44140      48.1331      77.3101
   1416.05114      50.1854      56.5786    1400.42614      48.0545      76.5137
   1416.03588      50.6158      56.1591    1400.41088      48.0400      76.8444
   1416.02062      50.1099      55.7465    1400.39562      47.5786      76.0607
   1416.00537      49.6937      55.9440    1400.38037      47.3789      76.8703
   1415.99011      49.9420      55.8404    1400.36511      47.0745      76.6031
   1415.97485      49.7275      55.7423    1400.34985      47.4900      75.9483
   1415.95959      49.7090      56.1336    1400.33459      46.9685      75.6663
   1415.94433      49.3706      56.0088    1400.31933      46.7115      75.7105
   1415.92907      49.3900      55.7675    1400.30407      46.4946      75.5665
   1415.91381      48.7869      55.3235    1400.28881      46.3203      75.0032
   1415.89855      49.1847      55.8741    1400.27355      46.3222      75.3302
   1415.88330      48.7481      55.8729    1400.25830      46.0046      75.0140
   1415.86804      48.8757      54.8926    1400.24304      45.8899      74.7343
   1415.85278      48.5596      55.7162    1400.22778      45.9218      73.9592
   1415.83752      48.4393      55.1216    1400.21252      45.3356      73.9754
   1415.82226      48.1383      54.3237    1400.19726      45.1779      72.9281
   1415.80700      47.5905      54.4275    1400.18200      44.7080      72.7277
   1415.79174      47.7337      54.5108    1400.16674      44.5707      72.4362
   1415.77648      47.5724      54.8029    1400.15148      44.6757      72.9297
   1415.76123      47.5243      54.1146    1400.13623      43.9515      72.3393
   1415.74597      47.2720      54.6926    1400.12097      43.8734      71.4786
   1415.73071      46.7950      53.7590    1400.10571      44.1968      71.4776
   1415.71545      47.1299      54.2799    1400.09045      44.2117      72.6512
   1415.70019      46.4415      53.1248    1400.07519      43.3752      71.4851
   1415.68493      46.6352      53.9614    1400.05993      43.1115      71.2545
   1415.66967      46.5899      52.9901    1400.04467      43.1395      70.4686
   1415.65441      46.3386      53.6508    1400.02941      43.0032      71.5148
   1415.63916      45.5137      52.7176    1400.01416      42.1927      70.1395
   1415.62390      45.7301      52.2680    1399.99890      42.2838      70.1303
   1415.60864      45.9521      52.6885    1399.98364      42.6272      70.0417
   1415.59338      45.4170      52.6296    1399.96838      42.0122      69.1175
   1415.57812      45.2876      52.2313    1399.95312      41.4276      69.2530
   1415.56286      45.0242      51.6625    1399.93786      41.7847      68.4774
   1415.54760      44.6918      51.2555    1399.92260      41.3237      68.8067
   1415.53234      44.5648      51.3877    1399.90734      41.0117      68.5724
   1415.51708      44.5504      51.4393    1399.89208      40.8301      67.5316
   1415.50183      44.6159      51.0812    1399.87683      40.6357      67.3711
   1415.48657      44.0438      50.6563    1399.86157      40.2454      67.2894
   1415.47131      43.9126      50.8484    1399.84631      40.1353      66.0882
   1415.45605      43.5900      50.4608    1399.83105      40.2331      66.4914
   1415.44079      43.4129      50.0328    1399.81579      39.1834      65.7713
   1415.42553      43.3675      49.9781    1399.80053      39.7359      66.2184
   1415.41027      43.0253      49.7745    1399.78527      39.3034      65.3521
   1415.39501      42.7558      49.0361    1399.77001      39.0753      65.4248
   1415.37976      42.2584      49.0670    1399.75476      38.9395      64.2756
   1415.36450      42.2013      49.2805    1399.73950      38.1458      64.3403
   1415.34924      42.1362      48.8526    1399.72424      38.3723      63.8943
   1415.33398      42.0232      48.8124    1399.70898      37.8744      63.9001
   1415.31872      41.8868      48.0096    1399.69372      37.7863      62.6529
   1415.30346      41.3645      47.8605    1399.67846      37.7020      62.1600
   1415.28820      41.3015      47.3629    1399.66320      37.6554      61.8049
   1415.27294      40.7903      47.5990    1399.64794      37.1185      62.2277
   1415.25769      40.5291      46.8520    1399.63269      36.6128      61.6735
   1415.24243      40.4646      46.9438    1399.61743      36.9185      60.8086
   1415.22717      40.3972      46.9543    1399.60217      36.4048      60.6777
   1415.21191      39.7435      46.3864    1399.58691      36.1100      60.5167
   1415.19665      40.1392      46.3311    1399.57165      36.0265      60.1308
   1415.18139      39.7277      45.8684    1399.55639      35.5689      59.7532
   1415.16613      39.6247      45.6151    1399.54113      35.4814      59.5637
   1415.15087      39.1532      45.3147    1399.52587      35.2351      59.0037
   1415.13562      38.6150      45.2430    1399.51062      35.2143      58.3753
   1415.12036      38.7733      44.9645    1399.49536      34.8038      58.5236
   1415.10510      38.7166      45.1106    1399.48010      34.5407      58.3422
   1415.08984      38.4740      44.9277    1399.46484      33.9721      57.3982
   1415.07458      37.9704      44.4478    1399.44958      34.2509      57.3920
   1415.05932      37.9581      43.9611    1399.43432      34.1448      56.5742
   1415.04406      37.6529      44.2305    1399.41906      33.9680      57.1476
   1415.02880      37.3596      43.7016    1399.40380      33.6003      56.5907
   1415.01354      37.2376      43.2110    1399.38854      33.6140      56.0211
   1414.99829      36.9411      43.2495    1399.37329      33.0416      55.2489
   1414.98303      36.9116      42.5596    1399.35803      33.0453      55.0914
   1414.96777      36.2793      42.5022    1399.34277      32.7908      54.3501
   1414.95251      36.1420      42.4178    1399.32751      32.3415      54.6618
   1414.93725      36.1552      42.1723    1399.31225      32.0675      53.7411
   1414.92199      35.6165      41.8538    1399.29699      32.1183      52.8508
   1414.90673      35.8982      41.8024    1399.28173      32.1128      53.1338
   1414.89147      35.8604      41.4226    1399.26647      31.5486      53.0316
   1414.87622      35.0294      41.1015    1399.25122      31.1411      52.3748
