#     FILENAME=Skynet_59007_gl24_45081_54665.A.spect.cal.txt
#     BASENAME=Skynet_59007_gl24_45081_54665
#      CONTROL=SKYNET
#     PROJCODE=Skynet_59007_gl24_45081
#     DATAROOT=/raid/scratch/cyborg/SkynetData
#      DATADIR=/raid/scratch/cyborg
#     DATADIR2=/raid/scratch/cyborg/SkynetData/Skynet_59007_gl24_45081/Cyborg
#     SCANNAME=2018_05_24_20
#     SRC_NAME=gl24
#     OBSERVER=reichart_2118
#     DATE_OBS=2020-06-07T04:28:44.310
#        OBSID=45081
#      SCANNUM=54665
#          MJD=59007.186624
#          UTC=16124
#     SCANTYPE=track
#     DATAMODE=HIRES
#     RECEIVER=Rx1_2
#      OBSFREQ=1395.0000
# Actual_FREQ1=1421.8800,
# Actual_FREQ2=1406.2550
#    LO1Tuning=6856.2600
#     RFFILTER=1355_1435
#        OBSBW=-15.6250
#     EFFBANDW=15.6250
#        NCHAN=1024
#    STARTCHAN=51
#     STOPCHAN=972
#         TINT=0.3000
#         TBIN=0.00013107
#       ACCLEN=2048 
#     DURATION=18.00
#     EXPOSURE=2.40
#        FOCUS=37.093
#       RA,DEC=18:35:17.99, -07:56:34.90
#      RA(deg)=278.76321
#     DEC(deg)=-7.94024
#   WIDTH(deg)=0.0119x0.0036
#    AZIM(deg)=136.0087
#    ELEV(deg)=32.8654
#     COORDREF=LNG_LAT
#         HREF=24.0000
#         VREF=0.0000
#      RADESYS=FK5
#       OFFSYS=RADEC
#      EQUINOX=2000.00
#     IFATTENS=23.00, 7.00
#   BALANCELEV=1.200 
#   POWER_XLYR=[1.4, 1.37] 
#       VELDEF=RADI-OBS 
#     VELOCITY=0.000 
#         NPOL=2 
#      POLMODE=Linear 
#      POLTYPE=XXYY 
#      WARNING=None 
#     NOISECAL=HI 
#       PRECAL=2 
#      POSTCAL=2 
#     CRYOTEMP=15 
#      BOXTEMP=33 
#         TSYS=XX1:60.07, YY1:56.75
#         TSYS=XX2:54.24, YY2:64.38
#         TCAL=XX1:9.17, YY1:10.07
#         TCAL=XX2:9.16, YY2:9.99
# Calibrated spectra 
#                
#                
#Freq1(MHz)         XX1          YY1   Freq2(MHz)       XX2         YY2 
   1428.91430      29.8421      35.9138    1413.28930      31.7225      48.9937
   1428.89904      29.7248      36.2027    1413.27404      32.1826      48.9282
   1428.88378      29.9654      36.4765    1413.25878      32.2842      49.4486
   1428.86853      30.0221      36.4431    1413.24353      32.3658      49.4529
   1428.85327      29.9769      36.6048    1413.22827      32.8268      49.6714
   1428.83801      30.1384      36.9036    1413.21301      32.7324      49.7985
   1428.82275      30.5185      37.2327    1413.19775      33.1237      50.0361
   1428.80749      30.1124      36.8574    1413.18249      32.8626      50.6583
   1428.79223      30.4031      37.4424    1413.16723      33.2736      50.4532
   1428.77697      30.7204      37.4600    1413.15197      33.7364      50.8570
   1428.76171      30.3090      38.1204    1413.13671      33.5882      51.4840
   1428.74646      30.8073      38.5710    1413.12146      33.8916      51.0308
   1428.73120      31.0672      38.2560    1413.10620      33.8333      51.6139
   1428.71594      31.2735      38.3967    1413.09094      34.2364      51.6404
   1428.70068      31.5031      38.5949    1413.07568      34.5060      52.4688
   1428.68542      31.2478      39.0512    1413.06042      34.8829      52.4921
   1428.67016      31.7393      39.2731    1413.04516      34.8156      52.8735
   1428.65490      31.5509      40.1314    1413.02990      34.8394      52.6091
   1428.63964      31.9831      39.7401    1413.01464      35.0204      53.0415
   1428.62438      32.0731      39.9449    1412.99938      35.4376      53.2639
   1428.60913      32.1800      40.1185    1412.98413      35.4101      53.6837
   1428.59387      31.9262      40.3449    1412.96887      35.5835      53.8430
   1428.57861      32.2750      40.4975    1412.95361      35.9189      54.5717
   1428.56335      32.5679      40.9078    1412.93835      35.9698      54.3892
   1428.54809      32.2442      41.1776    1412.92309      36.2036      54.6215
   1428.53283      32.9340      41.5706    1412.90783      36.2927      55.6063
   1428.51757      32.7171      41.5754    1412.89257      36.2775      55.3400
   1428.50231      32.8892      42.2140    1412.87731      36.4425      55.7184
   1428.48706      33.2109      42.4679    1412.86206      36.8022      56.3136
   1428.47180      33.2125      42.5452    1412.84680      36.9337      56.2112
   1428.45654      33.6078      42.5676    1412.83154      37.4881      55.6304
   1428.44128      33.7052      42.9248    1412.81628      37.5127      56.8764
   1428.42602      33.9814      43.1345    1412.80102      37.7794      57.1153
   1428.41076      33.9931      43.4891    1412.78576      38.0035      57.0704
   1428.39550      33.8919      43.7000    1412.77050      38.3507      57.1100
   1428.38024      34.0756      44.4419    1412.75524      38.3169      57.6404
   1428.36499      34.3848      43.9662    1412.73999      38.7554      57.5866
   1428.34973      34.5343      44.6804    1412.72473      38.9528      58.3095
   1428.33447      34.5915      44.7330    1412.70947      38.7892      58.7413
   1428.31921      35.0900      44.9637    1412.69421      39.2403      58.6123
   1428.30395      35.3175      45.4427    1412.67895      39.4569      59.2429
   1428.28869      35.0273      45.6758    1412.66369      39.3611      59.1801
   1428.27343      35.2621      46.2841    1412.64843      39.7476      59.4915
   1428.25817      35.4186      46.4574    1412.63317      40.0267      59.3799
   1428.24292      36.0185      46.5912    1412.61792      40.2385      60.2630
   1428.22766      35.8156      46.7737    1412.60266      39.8943      60.0962
   1428.21240      35.8288      47.4254    1412.58740      40.9627      61.0674
   1428.19714      36.1551      47.5205    1412.57214      40.6884      61.4135
   1428.18188      36.3097      47.6259    1412.55688      40.8281      61.4592
   1428.16662      36.5973      48.0762    1412.54162      41.2621      61.2116
   1428.15136      36.4174      48.2664    1412.52636      41.4325      61.4080
   1428.13610      36.7669      48.3000    1412.51110      41.6390      62.7858
   1428.12084      36.7958      49.0952    1412.49584      41.3603      62.8170
   1428.10559      37.0234      49.2237    1412.48059      41.6343      62.7300
   1428.09033      37.5844      49.5175    1412.46533      42.0859      62.9891
   1428.07507      37.2549      49.7285    1412.45007      42.1692      62.8029
   1428.05981      37.4217      50.3382    1412.43481      43.0424      62.8018
   1428.04455      37.6670      50.2089    1412.41955      42.5334      63.5916
   1428.02929      37.5362      50.9264    1412.40429      42.1809      64.0486
   1428.01403      38.0605      51.0621    1412.38903      42.4986      63.9610
   1427.99877      37.8925      51.2615    1412.37377      43.1757      64.1081
   1427.98352      38.2909      51.3877    1412.35852      43.1451      64.7953
   1427.96826      38.7555      52.1045    1412.34326      43.1073      64.3828
   1427.95300      38.6420      52.0555    1412.32800      43.5220      65.0809
   1427.93774      38.8527      52.3300    1412.31274      43.6548      65.3711
   1427.92248      39.2588      52.9483    1412.29748      43.4986      65.5165
   1427.90722      39.5724      52.9771    1412.28222      43.8459      65.2382
   1427.89196      39.2310      53.4140    1412.26696      44.2413      66.3672
   1427.87670      39.5970      53.6377    1412.25170      44.3736      65.5095
   1427.86145      39.6782      54.2009    1412.23645      44.3758      65.9289
   1427.84619      39.6146      53.6466    1412.22119      44.4014      66.4019
   1427.83093      40.1584      54.0437    1412.20593      44.5739      66.9002
   1427.81567      40.1433      54.5725    1412.19067      45.0976      66.8562
   1427.80041      40.5848      54.7342    1412.17541      44.7425      66.5828
   1427.78515      40.5068      55.1689    1412.16015      44.9889      67.4540
   1427.76989      40.3384      55.7310    1412.14489      45.2730      67.4823
   1427.75463      40.8602      55.8217    1412.12963      45.4913      68.6361
   1427.73937      40.7946      56.6765    1412.11437      45.9857      67.5240
   1427.72412      41.0855      55.8943    1412.09912      45.6291      67.6231
   1427.70886      41.2896      56.4507    1412.08386      46.1920      68.4243
   1427.69360      41.0214      57.1811    1412.06860      45.6977      68.9686
   1427.67834      41.4425      57.1474    1412.05334      46.1990      68.6904
   1427.66308      41.5130      57.0044    1412.03808      46.6759      68.8523
   1427.64782      41.7557      57.4373    1412.02282      46.2931      68.1370
   1427.63256      41.8278      57.6183    1412.00756      46.5339      68.5511
   1427.61730      41.7905      57.5727    1411.99230      46.7002      68.7636
   1427.60205      41.9129      57.9198    1411.97705      46.9311      68.7818
   1427.58679      42.2520      58.5771    1411.96179      46.8616      69.3925
   1427.57153      42.0787      58.3803    1411.94653      46.8370      69.2288
   1427.55627      42.1174      58.3471    1411.93127      47.3724      69.9484
   1427.54101      42.8137      59.6829    1411.91601      47.7272      69.3838
   1427.52575      42.6073      58.9974    1411.90075      47.6593      69.4795
   1427.51049      42.8579      58.6852    1411.88549      47.7261      69.5088
   1427.49523      43.0558      60.0363    1411.87023      47.7160      70.2934
   1427.47998      43.3914      59.6395    1411.85498      48.3011      70.0346
   1427.46472      43.0678      60.5856    1411.83972      47.6579      70.2427
   1427.44946      43.0760      60.5642    1411.82446      47.9702      69.8786
   1427.43420      43.3527      60.3294    1411.80920      48.8738      69.9993
   1427.41894      43.8985      60.6388    1411.79394      47.8457      70.3887
   1427.40368      43.9411      60.7170    1411.77868      48.7650      70.2760
   1427.38842      43.8247      61.1245    1411.76342      48.4695      70.6386
   1427.37316      44.0779      61.4184    1411.74816      48.2629      71.0413
   1427.35791      43.6911      61.5359    1411.73291      48.4889      71.1783
   1427.34265      43.9862      62.0799    1411.71765      48.9153      70.8091
   1427.32739      44.0765      61.9583    1411.70239      48.5102      71.3320
   1427.31213      44.1985      62.1692    1411.68713      49.3836      71.1079
   1427.29687      44.6253      62.4326    1411.67187      48.7379      71.7300
   1427.28161      44.4751      61.9279    1411.65661      48.8412      71.8002
   1427.26635      44.5782      62.5190    1411.64135      48.9967      70.9831
   1427.25109      45.1542      63.0134    1411.62609      49.3190      71.5333
   1427.23583      44.6254      63.0780    1411.61083      49.3020      71.3645
   1427.22058      45.0318      63.1953    1411.59558      49.3670      71.2271
   1427.20532      45.3980      63.7674    1411.58032      49.1876      71.8958
   1427.19006      45.1440      63.1456    1411.56506      49.1882      71.6487
   1427.17480      45.2688      63.4258    1411.54980      49.0674      71.4860
   1427.15954      45.8757      63.6734    1411.53454      49.6805      71.3142
   1427.14428      45.3968      63.7191    1411.51928      49.8828      71.5450
   1427.12902      45.6747      63.8232    1411.50402      50.3074      71.3103
   1427.11376      45.5744      64.0353    1411.48876      50.0447      72.1944
   1427.09851      45.9292      64.4533    1411.47351      49.7186      72.2226
   1427.08325      45.6992      64.4789    1411.45825      50.3097      71.3129
   1427.06799      45.9317      64.1168    1411.44299      50.2770      72.1577
   1427.05273      45.9355      64.6721    1411.42773      50.0345      71.9798
   1427.03747      46.4872      64.6706    1411.41247      49.9665      72.3178
   1427.02221      45.9875      64.7237    1411.39721      50.6761      71.8980
   1427.00695      46.2763      65.1885    1411.38195      50.2729      72.3529
   1426.99169      46.9235      64.6283    1411.36669      50.0293      71.8739
   1426.97644      46.3802      65.5180    1411.35144      50.6721      71.5778
   1426.96118      46.4514      65.5125    1411.33618      50.5422      71.3477
   1426.94592      46.7451      65.3621    1411.32092      50.6583      72.2734
   1426.93066      46.9571      64.8889    1411.30566      50.2256      71.4004
   1426.91540      46.8934      64.7901    1411.29040      50.9399      71.4772
   1426.90014      47.0794      65.6702    1411.27514      50.7517      71.5746
   1426.88488      47.0430      65.8520    1411.25988      50.9924      71.9788
   1426.86962      47.5994      65.9509    1411.24462      50.4406      72.1253
   1426.85437      47.3020      65.0858    1411.22937      50.4861      72.0184
   1426.83911      47.7910      66.3732    1411.21411      51.0600      71.8079
   1426.82385      47.3221      66.1553    1411.19885      50.5861      71.6852
   1426.80859      47.5404      65.5445    1411.18359      50.8316      71.3503
   1426.79333      47.5333      66.4595    1411.16833      51.3913      71.1193
   1426.77807      47.2133      66.0387    1411.15307      51.1407      71.5049
   1426.76281      47.5553      66.8822    1411.13781      50.7341      70.8861
   1426.74755      47.8976      66.7526    1411.12255      50.7162      71.9514
   1426.73229      48.3739      65.8519    1411.10729      51.2997      71.5100
   1426.71704      47.8563      66.3047    1411.09204      51.2278      71.7193
   1426.70178      48.4331      66.8007    1411.07678      51.5370      71.0948
   1426.68652      47.9957      66.3202    1411.06152      51.1770      71.0602
   1426.67126      48.3111      66.3741    1411.04626      50.9642      71.5255
   1426.65600      48.0996      66.9702    1411.03100      51.4412      71.3844
   1426.64074      48.6533      66.9504    1411.01574      51.2022      69.8901
   1426.62548      48.6276      66.1744    1411.00048      51.1867      70.9526
   1426.61022      48.6922      66.5211    1410.98522      50.9931      70.7368
   1426.59497      49.0117      66.3339    1410.96997      51.5413      70.9870
   1426.57971      48.7161      66.3473    1410.95471      51.3304      70.9491
   1426.56445      48.7730      66.8658    1410.93945      51.3997      70.2088
   1426.54919      48.8610      66.5894    1410.92419      51.5857      70.4376
   1426.53393      48.8740      66.9236    1410.90893      51.0457      70.9452
   1426.51867      48.9965      66.7742    1410.89367      51.0619      70.6949
   1426.50341      48.9955      66.7438    1410.87841      51.3540      70.0896
   1426.48815      48.7276      66.7733    1410.86315      51.2171      70.4390
   1426.47290      49.2310      66.6170    1410.84790      50.9008      70.5647
   1426.45764      48.9739      66.0755    1410.83264      51.5666      69.8582
   1426.44238      49.4664      66.0026    1410.81738      51.7207      69.6719
   1426.42712      49.2013      66.4961    1410.80212      51.3922      70.0308
   1426.41186      48.9525      66.4452    1410.78686      51.6107      69.8167
   1426.39660      49.1977      66.9192    1410.77160      51.3792      70.1626
   1426.38134      49.5796      66.7956    1410.75634      51.6693      69.9165
   1426.36608      49.7480      67.0165    1410.74108      52.0370      69.8017
   1426.35083      49.4182      66.7343    1410.72583      50.9789      70.0586
   1426.33557      49.9037      66.6797    1410.71057      51.3553      69.4592
   1426.32031      49.8556      66.0201    1410.69531      51.3997      69.3240
   1426.30505      49.7839      66.1315    1410.68005      51.4720      69.1481
   1426.28979      49.9018      66.3571    1410.66479      51.5169      69.0677
   1426.27453      49.8755      66.2402    1410.64953      51.5267      69.0947
   1426.25927      49.9667      66.4948    1410.63427      51.8728      68.8932
   1426.24401      50.0583      66.0396    1410.61901      51.6768      68.5706
   1426.22875      50.0835      66.4523    1410.60375      51.6292      68.2625
   1426.21350      50.0506      66.3448    1410.58850      51.3315      69.2091
   1426.19824      50.1118      65.7880    1410.57324      51.6395      68.5721
   1426.18298      50.7404      66.4770    1410.55798      51.6411      68.2028
   1426.16772      50.4756      65.7763    1410.54272      52.0133      67.9929
   1426.15246      50.4346      65.4372    1410.52746      51.6763      67.8330
   1426.13720      50.5206      66.1608    1410.51220      51.2353      67.6430
   1426.12194      50.3723      65.7954    1410.49694      51.6777      67.4054
   1426.10668      50.5566      65.6260    1410.48168      51.4846      67.3130
   1426.09143      50.8613      66.1258    1410.46643      51.4110      66.9004
   1426.07617      50.4481      65.6610    1410.45117      51.5969      67.9348
   1426.06091      50.6926      66.3633    1410.43591      51.8682      67.3600
   1426.04565      50.7679      65.9069    1410.42065      52.2469      67.1266
   1426.03039      51.3521      64.9585    1410.40539      51.8289      66.4436
   1426.01513      51.0460      65.9892    1410.39013      51.1519      66.6250
   1425.99987      50.9457      64.7716    1410.37487      51.9212      65.9028
   1425.98461      50.5406      65.7374    1410.35961      51.9859      66.7324
   1425.96936      51.0864      65.5279    1410.34436      51.9533      65.9378
   1425.95410      50.8387      65.1035    1410.32910      51.5954      66.0635
   1425.93884      51.5079      65.2965    1410.31384      51.5314      65.5425
   1425.92358      51.3636      65.3934    1410.29858      51.6960      66.2963
   1425.90832      51.4775      65.3543    1410.28332      51.3321      66.0088
   1425.89306      51.3978      65.0201    1410.26806      51.5949      65.9854
   1425.87780      51.7667      64.6773    1410.25280      51.7587      65.3757
   1425.86254      51.7041      64.7995    1410.23754      51.6995      65.9769
   1425.84729      51.9762      64.6496    1410.22229      51.5532      65.6454
   1425.83203      51.6616      64.7206    1410.20703      51.5903      65.4218
   1425.81677      51.8768      64.5447    1410.19177      51.8897      65.5342
   1425.80151      51.9650      64.3052    1410.17651      51.6132      64.9839
   1425.78625      52.1074      63.9880    1410.16125      51.5582      65.1301
   1425.77099      52.0728      64.4804    1410.14599      51.5480      64.5926
   1425.75573      52.3875      64.0205    1410.13073      51.5555      64.6145
   1425.74047      52.3595      64.4943    1410.11547      51.3858      64.3152
   1425.72521      52.3277      64.0495    1410.10021      51.9916      63.8890
   1425.70996      51.8433      63.9743    1410.08496      51.6399      64.1748
   1425.69470      51.8945      64.0584    1410.06970      51.4825      64.3915
   1425.67944      52.4703      64.4351    1410.05444      51.7038      64.1525
   1425.66418      52.9124      63.7752    1410.03918      52.1119      64.0733
   1425.64892      52.3053      63.4055    1410.02392      51.5802      63.3218
   1425.63366      52.5930      63.8824    1410.00866      51.6676      64.0815
   1425.61840      52.5433      63.2860    1409.99340      51.5989      62.9466
   1425.60314      52.5971      63.5845    1409.97814      52.2023      63.0668
   1425.58789      52.3468      63.8922    1409.96289      51.7273      62.9565
   1425.57263      52.9688      63.4733    1409.94763      51.3989      63.1676
   1425.55737      53.0907      63.2394    1409.93237      51.2597      63.1613
   1425.54211      53.3732      62.9844    1409.91711      52.2943      62.9947
   1425.52685      53.4392      63.2300    1409.90185      52.0894      63.3241
   1425.51159      52.7801      63.1749    1409.88659      51.6275      63.0073
   1425.49633      53.4914      62.7811    1409.87133      51.2379      62.4281
   1425.48107      53.1143      63.1948    1409.85607      51.5926      62.4895
   1425.46582      53.9247      62.8205    1409.84082      52.0904      62.1260
   1425.45056      53.2482      62.5355    1409.82556      51.9363      61.9615
   1425.43530      53.6236      62.6517    1409.81030      51.6119      61.7950
   1425.42004      54.4058      62.3338    1409.79504      51.9663      61.4287
   1425.40478      53.1155      62.9654    1409.77978      51.5834      62.0603
   1425.38952      53.2714      62.6864    1409.76452      52.2787      61.1707
   1425.37426      53.7172      62.5237    1409.74926      51.7767      61.0592
   1425.35900      54.0311      62.6904    1409.73400      52.3884      60.9552
   1425.34375      54.0667      62.3354    1409.71875      51.9099      61.5453
   1425.32849      53.8326      61.9150    1409.70349      51.7601      61.5018
   1425.31323      53.3446      61.6555    1409.68823      51.8720      60.5139
   1425.29797      54.5178      61.7000    1409.67297      51.6375      60.8395
   1425.28271      53.7385      61.7541    1409.65771      52.0021      60.7353
   1425.26745      54.2158      62.0917    1409.64245      51.6784      60.2473
   1425.25219      54.4459      62.0212    1409.62719      51.6392      60.9427
   1425.23693      54.2296      62.0170    1409.61193      52.0521      59.9909
   1425.22167      54.4260      61.5154    1409.59667      51.9112      59.9722
   1425.20642      54.3267      61.7292    1409.58142      51.6397      60.1021
   1425.19116      55.2534      61.2037    1409.56616      51.5779      59.4633
   1425.17590      54.9384      61.1334    1409.55090      51.9813      59.2799
   1425.16064      54.6395      60.7823    1409.53564      52.0839      59.6270
   1425.14538      55.4289      61.4858    1409.52038      52.0970      59.2122
   1425.13012      54.5508      60.9416    1409.50512      51.8076      59.3690
   1425.11486      54.8390      60.6422    1409.48986      52.1151      58.9433
   1425.09960      55.0105      61.0752    1409.47460      52.2864      58.6124
   1425.08435      55.2394      60.5751    1409.45935      52.1061      58.6562
   1425.06909      55.6247      60.1031    1409.44409      52.2641      59.1631
   1425.05383      55.6765      60.2792    1409.42883      51.8033      58.7170
   1425.03857      55.5766      59.8300    1409.41357      52.0152      59.1659
   1425.02331      55.7142      60.4269    1409.39831      52.1328      58.4659
   1425.00805      55.5835      60.8323    1409.38305      51.7914      58.2957
   1424.99279      55.6861      60.0889    1409.36779      51.9968      58.0203
   1424.97753      55.7198      60.0057    1409.35253      52.2409      57.6719
   1424.96228      55.5405      59.8084    1409.33728      52.1572      58.1460
   1424.94702      55.3527      59.9318    1409.32202      52.2985      57.8440
   1424.93176      55.6089      59.7825    1409.30676      52.2966      57.6736
   1424.91650      56.5984      59.1004    1409.29150      52.4747      57.1679
   1424.90124      56.0786      59.9206    1409.27624      52.2100      56.7942
   1424.88598      57.0039      60.3718    1409.26098      52.4057      57.3951
   1424.87072      56.4568      58.9398    1409.24572      52.7208      57.6195
   1424.85546      56.0069      59.6574    1409.23046      52.1821      56.8225
   1424.84021      56.7268      59.3466    1409.21521      52.5844      57.0256
   1424.82495      56.7269      59.6796    1409.19995      52.0426      56.9825
   1424.80969      56.7008      59.2466    1409.18469      52.8615      56.8506
   1424.79443      57.1100      58.5577    1409.16943      52.6117      57.2617
   1424.77917      56.8719      58.7545    1409.15417      52.4676      56.2752
   1424.76391      56.8461      58.7168    1409.13891      52.6343      56.5509
   1424.74865      57.1628      58.3829    1409.12365      52.6275      55.9677
   1424.73339      56.8213      58.8077    1409.10839      52.3088      56.5401
   1424.71813      57.2490      58.8983    1409.09313      52.8894      56.3749
   1424.70288      57.0067      58.9238    1409.07788      52.8406      55.4682
   1424.68762      57.3576      58.9032    1409.06262      52.7418      55.5463
   1424.67236      57.0961      58.2929    1409.04736      52.6525      55.9069
   1424.65710      57.1151      58.4799    1409.03210      52.7971      55.7060
   1424.64184      57.2792      58.1014    1409.01684      52.7128      55.2133
   1424.62658      57.6984      57.9040    1409.00158      52.9006      55.2922
   1424.61132      58.0096      58.2176    1408.98632      53.3052      55.3553
   1424.59606      57.4770      57.3203    1408.97106      52.9281      54.8960
   1424.58081      58.2276      57.8940    1408.95581      52.7380      55.1937
   1424.56555      57.9418      57.2098    1408.94055      53.3836      54.7684
   1424.55029      58.4886      57.2490    1408.92529      52.9117      55.0998
   1424.53503      58.4963      57.1086    1408.91003      53.3224      54.7984
   1424.51977      58.1431      57.3401    1408.89477      53.2126      54.7390
   1424.50451      57.6615      57.0241    1408.87951      52.9770      53.9867
   1424.48925      58.7728      57.6747    1408.86425      53.1094      54.2205
   1424.47399      58.6562      57.1252    1408.84899      53.2116      54.4298
   1424.45874      57.8176      57.0652    1408.83374      53.0729      54.0435
   1424.44348      58.5367      56.8707    1408.81848      53.5826      54.0436
   1424.42822      59.0416      56.4688    1408.80322      53.3674      54.0823
   1424.41296      58.4457      57.0047    1408.78796      53.4889      53.6425
   1424.39770      58.3852      57.1239    1408.77270      53.8383      53.8789
   1424.38244      58.3841      56.8432    1408.75744      53.3948      53.8829
   1424.36718      58.8543      56.5532    1408.74218      53.7416      53.7499
   1424.35192      58.0789      56.3673    1408.72692      53.8880      53.1524
   1424.33667      58.9168      56.3961    1408.71167      53.6611      53.0068
   1424.32141      59.2175      55.8578    1408.69641      53.2194      53.1651
   1424.30615      59.2389      55.9904    1408.68115      53.9473      53.5319
   1424.29089      58.8794      56.0778    1408.66589      54.1548      53.5661
   1424.27563      58.8136      55.7802    1408.65063      54.4295      53.3116
   1424.26037      59.3437      55.9778    1408.63537      53.9964      52.9610
   1424.24511      59.5223      55.9679    1408.62011      54.4416      53.2259
   1424.22985      59.4172      55.9014    1408.60485      53.7822      52.6187
   1424.21459      59.3419      55.9054    1408.58959      54.4162      52.9757
   1424.19934      59.6508      56.1265    1408.57434      54.0380      52.9749
   1424.18408      60.0807      55.2971    1408.55908      53.8316      52.3141
   1424.16882      59.6602      55.2406    1408.54382      53.9023      52.4631
   1424.15356      59.4633      55.5007    1408.52856      54.2145      52.3877
   1424.13830      59.6393      55.4482    1408.51330      54.2326      52.5074
   1424.12304      59.1599      54.6297    1408.49804      54.6885      52.2493
   1424.10778      60.0699      55.0174    1408.48278      54.1622      52.5445
   1424.09252      59.5340      55.0058    1408.46752      54.2719      51.7769
   1424.07727      60.3075      55.1096    1408.45227      54.4400      51.8861
   1424.06201      60.1870      54.8703    1408.43701      55.0952      51.9798
   1424.04675      60.6865      55.2283    1408.42175      54.3960      51.7770
   1424.03149      60.1933      55.1489    1408.40649      54.4821      51.4618
   1424.01623      60.1345      54.4360    1408.39123      54.6694      51.5899
   1424.00097      60.7076      54.5012    1408.37597      54.3105      51.7449
   1423.98571      60.4488      54.3817    1408.36071      54.3143      51.3503
   1423.97045      60.3427      53.9722    1408.34545      54.6412      51.5806
   1423.95520      60.4702      54.1572    1408.33020      55.0471      51.2700
   1423.93994      60.3379      53.7348    1408.31494      55.0559      51.0489
   1423.92468      60.8966      54.1953    1408.29968      54.6438      51.2683
   1423.90942      60.4639      54.1112    1408.28442      54.9205      50.6960
   1423.89416      60.6754      54.3335    1408.26916      55.2271      51.1241
   1423.87890      60.5947      53.9646    1408.25390      55.0988      51.1641
   1423.86364      61.3180      53.5264    1408.23864      55.2261      50.6961
   1423.84838      61.0761      53.3136    1408.22338      55.6084      50.9145
   1423.83312      61.1905      53.5095    1408.20812      55.4599      50.4172
   1423.81787      61.4163      53.5251    1408.19287      55.1100      50.9317
   1423.80261      61.1250      53.2495    1408.17761      55.4678      50.4426
   1423.78735      61.6995      53.5026    1408.16235      55.0427      50.7897
   1423.77209      61.2015      53.0575    1408.14709      55.2014      50.6040
   1423.75683      61.2152      52.5623    1408.13183      55.4685      50.3657
   1423.74157      61.2283      52.7053    1408.11657      55.2976      49.8515
   1423.72631      61.7243      52.4416    1408.10131      55.7782      49.6311
   1423.71105      61.6815      52.7442    1408.08605      55.8401      50.1101
   1423.69580      61.6404      52.3333    1408.07080      55.3184      50.0195
   1423.68054      61.3601      52.3996    1408.05554      56.0163      49.6067
   1423.66528      61.0537      52.7160    1408.04028      55.6626      49.9636
   1423.65002      60.7935      52.7987    1408.02502      56.0999      49.4445
   1423.63476      61.3885      52.3626    1408.00976      55.7655      49.9449
   1423.61950      61.6922      52.5693    1407.99450      56.1845      49.4773
   1423.60424      61.3751      52.0517    1407.97924      56.1328      49.1820
   1423.58898      61.8366      51.8218    1407.96398      56.3990      49.9704
   1423.57373      62.2476      51.9745    1407.94873      56.5574      49.2109
   1423.55847      61.3762      51.5549    1407.93347      56.4798      49.3833
   1423.54321      62.3715      52.1735    1407.91821      56.1384      49.0942
   1423.52795      61.6180      51.3836    1407.90295      56.1336      49.3763
   1423.51269      61.9742      51.7306    1407.88769      57.1150      49.4391
   1423.49743      61.8902      51.4366    1407.87243      56.4925      49.1251
   1423.48217      61.6958      51.3325    1407.85717      56.6623      49.4397
   1423.46691      62.2060      51.2357    1407.84191      56.6829      49.0730
   1423.45166      61.9700      51.7008    1407.82666      56.4786      49.4411
   1423.43640      62.2770      51.5606    1407.81140      56.7563      48.9939
   1423.42114      62.1623      51.5775    1407.79614      57.0238      48.6778
   1423.40588      61.8301      51.5001    1407.78088      56.5006      48.7051
   1423.39062      62.2427      51.2293    1407.76562      57.1141      49.1891
   1423.37536      61.9277      51.1393    1407.75036      56.6888      48.6704
   1423.36010      62.2204      50.1475    1407.73510      57.0833      49.5101
   1423.34484      62.3331      50.7824    1407.71984      57.2212      48.4607
   1423.32958      62.3923      50.2979    1407.70458      56.7174      48.4527
   1423.31433      62.1206      50.7901    1407.68933      57.2901      48.5761
   1423.29907      62.3807      50.6140    1407.67407      57.4647      48.7002
   1423.28381      63.0521      50.0512    1407.65881      57.3524      48.1274
   1423.26855      63.3085      50.4738    1407.64355      57.3993      48.4377
   1423.25329      62.7282      50.5964    1407.62829      57.2742      48.5884
   1423.23803      62.4414      50.4199    1407.61303      57.6882      48.2123
   1423.22277      62.4183      49.7661    1407.59777      57.3940      48.6570
   1423.20751      62.0545      50.1418    1407.58251      57.1939      48.2961
   1423.19226      63.6676      49.6360    1407.56726      57.6506      47.8527
   1423.17700      62.5066      50.0124    1407.55200      57.0838      48.4399
   1423.16174      62.8929      49.4191    1407.53674      58.0543      48.3152
   1423.14648      63.0146      49.7881    1407.52148      57.9799      47.8737
   1423.13122      62.4308      49.6243    1407.50622      57.9651      47.8591
   1423.11596      62.7985      49.4887    1407.49096      57.6846      48.1883
   1423.10070      62.6041      50.1152    1407.47570      57.5996      47.8841
   1423.08544      62.8479      48.9248    1407.46044      58.0874      47.9002
   1423.07019      62.8156      49.6334    1407.44519      58.3670      47.7765
   1423.05493      63.2384      49.0541    1407.42993      57.8759      47.7467
   1423.03967      63.1814      49.0918    1407.41467      58.0120      47.4363
   1423.02441      63.0175      49.1002    1407.39941      58.4424      47.6088
   1423.00915      62.8826      49.3092    1407.38415      58.5501      48.0507
   1422.99389      62.9927      48.9009    1407.36889      57.8303      47.3912
   1422.97863      62.7543      49.1362    1407.35363      58.7086      47.4959
   1422.96337      63.4054      48.4890    1407.33837      57.7539      47.3932
   1422.94812      62.9609      48.6409    1407.32312      58.1961      47.6516
   1422.93286      63.2404      48.8078    1407.30786      58.2957      47.3149
   1422.91760      62.4475      48.4039    1407.29260      58.6738      47.8669
   1422.90234      63.0294      48.4788    1407.27734      59.3107      47.5021
   1422.88708      63.1271      48.2286    1407.26208      58.8905      47.2671
   1422.87182      62.5981      48.4728    1407.24682      58.2272      47.7372
   1422.85656      62.7846      48.6592    1407.23156      59.2036      47.6922
   1422.84130      63.3144      48.3720    1407.21630      59.2041      47.2482
   1422.82604      63.1470      47.7121    1407.20104      58.8888      47.3444
   1422.81079      63.5348      48.6738    1407.18579      59.5211      47.1886
   1422.79553      62.9892      48.2123    1407.17053      59.4241      47.3076
   1422.78027      63.3236      47.8816    1407.15527      58.9931      47.3141
   1422.76501      63.4612      47.6986    1407.14001      59.3230      46.8797
   1422.74975      63.3946      47.9801    1407.12475      59.1007      47.3877
   1422.73449      63.0832      47.7800    1407.10949      58.8639      47.6703
   1422.71923      63.7411      47.6518    1407.09423      59.1951      47.2800
   1422.70397      63.1804      47.6137    1407.07897      59.2142      46.8134
   1422.68872      63.3676      47.8605    1407.06372      59.5258      47.4831
   1422.67346      63.2972      47.7717    1407.04846      59.9421      47.7484
   1422.65820      63.3690      47.7715    1407.03320      59.8713      46.7373
   1422.64294      63.4051      47.3362    1407.01794      60.0273      47.3076
   1422.62768      63.2782      47.2247    1407.00268      59.5283      47.1243
   1422.61242      63.3113      47.3123    1406.98742      59.8340      46.4906
   1422.59716      63.3471      47.0689    1406.97216      59.3518      47.0928
   1422.58190      62.6849      47.4309    1406.95690      59.2623      47.4452
   1422.56665      63.5901      47.0467    1406.94165      59.5749      46.9557
   1422.55139      63.4814      47.2035    1406.92639      59.5303      46.7830
   1422.53613      63.7131      46.8853    1406.91113      59.9789      47.0303
   1422.52087      63.6020      46.7818    1406.89587      59.7450      47.2513
   1422.50561      63.8183      46.4158    1406.88061      60.2945      46.9940
   1422.49035      63.8891      46.8292    1406.86535      60.0422      46.4806
   1422.47509      63.5547      46.6836    1406.85009      59.4565      47.6250
   1422.45983      63.8007      46.3041    1406.83483      59.8029      47.0920
   1422.44458      64.1277      46.9774    1406.81958      60.7870      47.1643
   1422.42932      63.9157      46.2151    1406.80432      60.6227      46.8509
   1422.41406      63.1214      46.9268    1406.78906      60.4612      46.8197
   1422.39880      63.7327      46.4736    1406.77380      60.1123      46.8325
   1422.38354      63.5163      46.2293    1406.75854      60.3441      47.0943
   1422.36828      63.8445      46.4940    1406.74328      60.0881      46.8041
   1422.35302      64.3159      46.3417    1406.72802      60.1493      46.9487
   1422.33776      63.6960      46.0478    1406.71276      60.4117      46.8892
   1422.32250      63.9762      46.3875    1406.69750      60.2320      47.2318
   1422.30725      63.2848      46.0487    1406.68225      60.9146      47.0418
   1422.29199      63.2684      46.2726    1406.66699      60.6055      46.9946
   1422.27673      63.5537      46.1829    1406.65173      60.7295      46.9680
   1422.26147      63.6440      45.6541    1406.63647      60.5147      46.8349
   1422.24621      63.7494      46.0925    1406.62121      60.7105      46.7554
   1422.23095      63.9656      45.6688    1406.60595      60.5585      46.9742
   1422.21569      63.5531      45.7022    1406.59069      60.2737      47.0171
   1422.20043      63.7502      45.9516    1406.57543      60.5222      46.8801
   1422.18518      63.6571      45.7360    1406.56018      61.1165      47.0982
   1422.16992      64.6140      46.0169    1406.54492      60.9254      47.3164
   1422.15466      64.1627      45.6862    1406.52966      60.6803      47.0267
   1422.13940      64.3412      45.7868    1406.51440      61.0527      47.2572
   1422.12414      63.7138      45.2876    1406.49914      60.6400      47.0946
   1422.10888      63.7859      45.8044    1406.48388      61.3457      47.2654
   1422.09362      63.3449      45.4278    1406.46862      60.9788      46.9372
   1422.07836      63.2514      45.7612    1406.45336      61.4059      46.7139
   1422.06311      63.7079      45.3396    1406.43811      61.4000      47.0155
   1422.04785      64.3138      45.3796    1406.42285      60.6084      47.1060
   1422.03259      64.1020      45.8363    1406.40759      60.7788      47.1766
   1422.01733      64.2821      45.4209    1406.39233      61.5152      46.9068
   1422.00207      63.2901      45.0852    1406.37707      62.3578      46.9998
   1421.98681      63.6641      45.2721    1406.36181      61.8532      47.4401
   1421.97155      63.4949      45.2554    1406.34655      61.2934      47.1965
   1421.95629      63.9646      44.7827    1406.33129      61.0812      47.4305
   1421.94104      63.7109      45.0984    1406.31604      61.2846      47.3097
   1421.92578      63.5750      44.7335    1406.30078      61.1485      47.4136
   1421.91052      64.2098      45.0285    1406.28552      61.1275      47.2023
   1421.89526      63.7390      44.8777    1406.27026      61.1963      48.0763
   1421.88000      63.9419      44.8615    1406.25500      61.3836      47.9893
   1421.86474      64.1448      44.8452    1406.23974      61.5709      47.9023
   1421.84948      63.7381      45.2444    1406.22448      61.9167      47.7663
   1421.83422      63.6577      44.6900    1406.20922      61.5696      47.5711
   1421.81896      64.1062      45.2497    1406.19396      61.1810      47.3426
   1421.80371      63.6311      44.6040    1406.17871      61.7708      47.5150
   1421.78845      64.1038      44.5856    1406.16345      61.9740      47.5802
   1421.77319      64.0247      44.7966    1406.14819      61.7409      47.7189
   1421.75793      64.0837      44.5597    1406.13293      61.7750      47.9649
   1421.74267      64.4271      44.6941    1406.11767      62.0001      47.8569
   1421.72741      64.3584      44.7520    1406.10241      62.1365      47.8901
   1421.71215      63.8307      44.3086    1406.08715      62.0837      47.3367
   1421.69689      64.0853      44.0096    1406.07189      61.9913      47.7343
   1421.68164      63.9878      44.5384    1406.05664      61.3883      47.8346
   1421.66638      63.4476      44.2145    1406.04138      61.2256      47.9004
   1421.65112      63.9069      44.6490    1406.02612      61.6329      47.9491
   1421.63586      63.9795      44.4225    1406.01086      62.0307      48.2372
   1421.62060      64.6758      44.2576    1405.99560      61.6409      48.1220
   1421.60534      64.2559      44.7704    1405.98034      61.8194      48.2455
   1421.59008      64.3182      44.4338    1405.96508      61.6288      48.0835
   1421.57482      64.0293      44.3589    1405.94982      61.7548      48.2022
   1421.55957      63.9159      44.2657    1405.93457      62.8275      48.1221
   1421.54431      64.0919      44.5285    1405.91931      62.4306      48.3306
   1421.52905      64.5190      44.4006    1405.90405      62.0310      47.8277
   1421.51379      64.4701      44.2412    1405.88879      62.1153      48.3996
   1421.49853      64.5592      44.5154    1405.87353      62.2773      48.3868
   1421.48327      64.5113      44.4898    1405.85827      62.1296      48.8922
   1421.46801      64.3944      44.3096    1405.84301      62.7104      48.6096
   1421.45275      64.7511      44.3141    1405.82775      62.1115      48.5185
   1421.43750      64.0924      44.4835    1405.81250      61.9303      48.2602
   1421.42224      65.3974      44.2066    1405.79724      62.9600      48.9262
   1421.40698      64.7422      44.1073    1405.78198      62.4873      48.7493
   1421.39172      64.0082      44.0698    1405.76672      62.2742      48.3929
   1421.37646      64.2027      44.2399    1405.75146      62.7747      48.5344
   1421.36120      64.7572      44.0125    1405.73620      61.9768      48.8690
   1421.34594      64.1890      44.0788    1405.72094      62.6326      48.8511
   1421.33068      64.3830      44.1824    1405.70568      62.3594      49.2110
   1421.31542      64.5997      44.2400    1405.69042      62.1207      48.9084
   1421.30017      64.0881      44.7717    1405.67517      62.6492      49.6879
   1421.28491      64.9365      44.2023    1405.65991      62.4228      49.5087
   1421.26965      64.6739      44.2319    1405.64465      62.0175      49.4270
   1421.25439      64.5504      43.8111    1405.62939      62.2388      49.8920
   1421.23913      64.6874      44.6631    1405.61413      61.9461      49.2023
   1421.22387      64.1792      44.3714    1405.59887      62.2790      49.3125
   1421.20861      64.3043      44.0932    1405.58361      62.9421      49.9383
   1421.19335      64.4773      44.5260    1405.56835      62.6822      49.7637
   1421.17810      64.4911      44.4909    1405.55310      62.8798      49.8423
   1421.16284      65.0666      44.3248    1405.53784      62.0333      49.1515
   1421.14758      64.6613      44.1711    1405.52258      62.4639      49.7270
   1421.13232      64.9900      44.5148    1405.50732      62.7030      50.1562
   1421.11706      64.1778      44.1929    1405.49206      62.2279      50.0081
   1421.10180      64.8754      44.2167    1405.47680      62.2903      50.4211
   1421.08654      65.0184      43.8500    1405.46154      61.9201      50.1042
   1421.07128      65.3155      44.3937    1405.44628      62.4670      50.3863
   1421.05603      65.3941      44.6169    1405.43103      62.4704      50.8564
   1421.04077      64.5294      43.8901    1405.41577      62.2054      50.8590
   1421.02551      65.0356      44.4136    1405.40051      62.6682      50.9088
   1421.01025      64.9033      44.5653    1405.38525      62.1228      50.8277
   1420.99499      64.9644      44.2459    1405.36999      62.2837      50.3766
   1420.97973      64.7635      44.4258    1405.35473      62.6263      50.6883
   1420.96447      65.0195      44.2032    1405.33947      62.6893      50.4784
   1420.94921      65.2991      44.4146    1405.32421      62.3243      50.9177
   1420.93396      64.4663      44.2736    1405.30896      62.2309      51.2996
   1420.91870      65.5824      44.8434    1405.29370      61.8064      51.2625
   1420.90344      65.4257      44.7791    1405.27844      62.3029      51.4349
   1420.88818      66.0980      44.3253    1405.26318      62.5465      51.1126
   1420.87292      66.1399      44.6471    1405.24792      62.1428      51.3353
   1420.85766      65.8452      44.3208    1405.23266      62.5557      51.3550
   1420.84240      65.9728      44.8173    1405.21740      62.3147      51.7355
   1420.82714      66.2506      45.0020    1405.20214      61.9291      51.5019
   1420.81188      66.5282      44.9181    1405.18688      62.2294      51.6489
   1420.79663      66.5346      45.7355    1405.17163      62.2497      51.9398
   1420.78137      68.5248      46.1538    1405.15637      62.5602      52.0892
   1420.76611      70.3672      47.9297    1405.14111      61.6141      52.3518
   1420.75085      74.6090      50.4030    1405.12585      62.2989      51.8928
   1420.73559      82.8301      56.1996    1405.11059      61.9518      52.7414
   1420.72033      96.0740      64.0136    1405.09533      61.4875      52.1288
   1420.70507     109.2429      72.1051    1405.08007      61.9323      52.8381
   1420.68981     117.7289      77.1790    1405.06481      62.4183      52.6714
   1420.67456     114.6953      76.4253    1405.04956      61.6334      52.6879
   1420.65930     104.7621      70.5539    1405.03430      61.8221      53.1732
   1420.64404      98.8060      64.9586    1405.01904      61.9751      52.5926
   1420.62878      92.7756      62.8116    1405.00378      61.8842      52.7945
   1420.61352      93.1026      62.3340    1404.98852      62.3160      52.8025
   1420.59826     102.0862      68.0422    1404.97326      61.9643      53.3248
   1420.58300     119.9397      79.2721    1404.95800      61.7550      53.0571
   1420.56774     133.5215      89.4072    1404.94274      61.3033      53.2413
   1420.55249     135.8114      89.5661    1404.92749      61.6649      53.6228
   1420.53723     140.8142      93.2629    1404.91223      61.7751      53.8737
   1420.52197     141.5515      93.2705    1404.89697      61.2607      53.3089
   1420.50671     122.3323      81.4730    1404.88171      61.5146      53.7128
   1420.49145     128.4712      85.4805    1404.86645      60.8113      53.5447
   1420.47619     143.4634      95.0501    1404.85119      61.0590      53.7506
   1420.46093     145.3178      96.6317    1404.83593      61.6450      53.9065
   1420.44567     145.3051      96.7637    1404.82067      60.6511      54.4644
   1420.43042     147.5322      97.6455    1404.80542      60.8893      54.0671
   1420.41516     147.1029      98.5945    1404.79016      61.4410      54.1090
   1420.39990     145.8880      97.4667    1404.77490      61.3722      54.6141
   1420.38464     145.8478      97.4527    1404.75964      60.8435      54.7691
   1420.36938     141.4876      95.1226    1404.74438      61.1839      54.8995
   1420.35412     140.8911      95.0473    1404.72912      60.6351      55.1368
   1420.33886     144.5221      95.5950    1404.71386      61.6785      54.7271
   1420.32360     142.7322      95.8351    1404.69860      61.1543      55.1602
   1420.30834     147.7808      98.4965    1404.68334      61.3594      55.1155
   1420.29309     148.7551      99.6596    1404.66809      60.9565      54.8596
   1420.27783     152.5230     100.2544    1404.65283      60.9315      54.8645
   1420.26257     154.8361     104.5782    1404.63757      61.0859      55.1095
   1420.24731     153.9051     102.7465    1404.62231      60.7689      55.4259
   1420.23205     144.9689      97.9279    1404.60705      61.1980      56.0610
   1420.21679     135.2621      91.6442    1404.59179      60.8354      55.7249
   1420.20153     134.2878      90.2798    1404.57653      60.6914      55.5716
   1420.18627     137.0640      92.6197    1404.56127      61.2317      56.0862
   1420.17102     135.0032      91.1283    1404.54602      60.6659      56.2167
   1420.15576     132.2673      90.2661    1404.53076      60.3496      56.3663
   1420.14050     135.4219      92.8456    1404.51550      60.7588      56.2269
   1420.12524     143.1118      97.1976    1404.50024      60.5560      56.6668
   1420.10998     150.4986     100.6165    1404.48498      60.6654      56.2383
   1420.09472     152.8487     104.1169    1404.46972      60.1243      56.9029
   1420.07946     155.1952     106.3775    1404.45446      60.2628      56.7464
   1420.06420     158.0620     108.1415    1404.43920      60.3305      56.7742
   1420.04895     157.9518     107.2856    1404.42395      60.1253      57.1880
   1420.03369     152.4489     103.4179    1404.40869      59.8040      57.4501
   1420.01843     142.6555      97.2324    1404.39343      60.0589      57.6201
   1420.00317     131.1290      89.1365    1404.37817      60.3139      57.1679
   1419.98791     119.2806      81.1639    1404.36291      60.7270      57.8684
   1419.97265     104.6738      72.8722    1404.34765      59.7066      57.6356
   1419.95739      92.1179      64.5349    1404.33239      59.9078      58.1883
   1419.94213      82.6563      57.5675    1404.31713      60.2803      58.3431
   1419.92687      76.7053      54.2279    1404.30187      59.5882      58.2882
   1419.91162      72.4008      51.2962    1404.28662      60.4102      58.2692
   1419.89636      69.9015      49.3212    1404.27136      60.2583      58.5404
   1419.88110      68.2240      48.9013    1404.25610      59.8163      58.3613
   1419.86584      67.2823      48.3499    1404.24084      59.1694      58.8468
   1419.85058      66.4523      47.9237    1404.22558      59.6051      59.1316
   1419.83532      66.3126      47.1809    1404.21032      59.7980      58.7715
   1419.82006      65.6416      47.4262    1404.19506      59.5509      59.1458
   1419.80480      65.6444      47.1921    1404.17980      59.7946      59.1616
   1419.78955      65.0286      47.3035    1404.16455      58.8542      59.5871
   1419.77429      65.3570      47.4164    1404.14929      59.6521      59.3061
   1419.75903      64.6479      47.4951    1404.13403      59.6000      60.2730
   1419.74377      65.4600      47.1191    1404.11877      59.1478      59.5053
   1419.72851      64.6891      47.7418    1404.10351      59.4217      59.7496
   1419.71325      65.0089      47.0673    1404.08825      59.5390      60.1796
   1419.69799      65.3042      47.3230    1404.07299      59.2586      60.4071
   1419.68273      64.8517      47.0251    1404.05773      59.8267      60.5007
   1419.66748      64.2080      47.0859    1404.04248      58.7183      60.7230
   1419.65222      64.9293      47.3273    1404.02722      59.3150      60.7648
   1419.63696      64.8411      47.6308    1404.01196      58.9208      60.7988
   1419.62170      64.3317      47.6442    1403.99670      58.6201      60.8416
   1419.60644      64.1519      48.0024    1403.98144      59.4254      61.4585
   1419.59118      64.8983      48.3032    1403.96618      58.9805      61.0344
   1419.57592      65.1666      47.9005    1403.95092      58.9513      60.7038
   1419.56066      64.5004      47.7371    1403.93566      58.8467      61.7396
   1419.54541      63.9175      47.6818    1403.92041      59.3216      61.2448
   1419.53015      64.6870      47.6094    1403.90515      58.8287      61.4972
   1419.51489      64.5639      48.0325    1403.88989      58.6180      62.0075
   1419.49963      64.5198      47.9562    1403.87463      58.5237      61.8070
   1419.48437      64.6113      48.5877    1403.85937      58.8062      62.1233
   1419.46911      64.5388      48.0906    1403.84411      58.4898      62.7503
   1419.45385      64.3714      48.7150    1403.82885      58.4135      63.0616
   1419.43859      64.3146      48.4050    1403.81359      58.8982      62.7068
   1419.42333      64.3163      48.1727    1403.79833      58.4278      63.1435
   1419.40808      63.7894      48.6917    1403.78308      58.2029      63.5464
   1419.39282      64.3383      48.4489    1403.76782      58.4121      62.8246
   1419.37756      64.3256      48.3243    1403.75256      57.7612      63.7190
   1419.36230      64.5564      48.3188    1403.73730      57.9664      63.2987
   1419.34704      64.1609      48.6840    1403.72204      58.1369      63.4778
   1419.33178      63.9708      48.5299    1403.70678      58.2937      63.6612
   1419.31652      64.7272      48.7441    1403.69152      58.3182      64.0409
   1419.30126      64.4017      48.6990    1403.67626      58.4137      64.3167
   1419.28601      64.1152      48.9752    1403.66101      58.2963      64.2063
   1419.27075      64.1538      48.9957    1403.64575      58.2230      64.6131
   1419.25549      64.0517      49.3349    1403.63049      58.0259      65.0540
   1419.24023      63.9341      48.7525    1403.61523      58.3573      64.5914
   1419.22497      64.3678      49.1295    1403.59997      58.0561      64.9838
   1419.20971      64.0119      49.8615    1403.58471      57.8132      64.6578
   1419.19445      64.1426      49.7484    1403.56945      57.6192      64.7639
   1419.17919      63.4082      49.8673    1403.55419      58.5968      65.2438
   1419.16394      63.8282      49.5080    1403.53894      58.1872      65.2731
   1419.14868      63.4607      49.5804    1403.52368      58.5966      65.9613
   1419.13342      64.0989      49.4464    1403.50842      57.8440      66.0629
   1419.11816      63.3735      49.9252    1403.49316      58.1130      66.6514
   1419.10290      63.0888      50.1486    1403.47790      58.1028      65.4765
   1419.08764      63.2665      49.8688    1403.46264      58.0866      66.3238
   1419.07238      63.1131      49.9508    1403.44738      57.7818      66.5220
   1419.05712      63.5805      50.2752    1403.43212      57.5737      66.0547
   1419.04187      63.2637      50.2218    1403.41687      57.8099      66.5875
   1419.02661      62.8517      50.7488    1403.40161      57.6473      67.2044
   1419.01135      63.8185      50.2080    1403.38635      57.7690      67.3901
   1418.99609      63.3409      50.7141    1403.37109      57.6764      67.1994
   1418.98083      63.3411      50.4058    1403.35583      57.7725      67.6952
   1418.96557      62.9077      50.3256    1403.34057      57.7705      67.9307
   1418.95031      63.3515      50.7567    1403.32531      57.5332      68.0730
   1418.93505      63.5037      51.0205    1403.31005      57.6576      68.8900
   1418.91979      63.4049      50.8313    1403.29479      57.6369      67.8156
   1418.90454      63.4768      50.4718    1403.27954      57.3708      69.1058
   1418.88928      63.0714      51.0047    1403.26428      57.3446      68.6676
   1418.87402      63.4550      50.8256    1403.24902      57.2026      68.9937
   1418.85876      62.9254      51.3154    1403.23376      57.5518      68.8692
   1418.84350      63.4284      50.8579    1403.21850      57.2531      69.0278
   1418.82824      63.3088      51.4676    1403.20324      57.5550      70.4160
   1418.81298      62.7769      51.0879    1403.18798      57.4306      69.6274
   1418.79772      63.3607      51.1762    1403.17272      56.8958      69.4174
   1418.78247      62.9178      51.7105    1403.15747      57.2474      69.4733
   1418.76721      62.8207      51.9971    1403.14221      57.2229      70.1227
   1418.75195      63.2171      51.9068    1403.12695      57.3635      69.4814
   1418.73669      63.2850      51.4649    1403.11169      57.4812      70.4173
   1418.72143      63.3961      52.3050    1403.09643      57.8171      71.3224
   1418.70617      62.9628      51.6557    1403.08117      56.9843      70.5386
   1418.69091      63.4141      52.0275    1403.06591      57.2703      71.4016
   1418.67565      62.8762      52.2701    1403.05065      57.6130      70.5819
   1418.66040      63.1848      52.5678    1403.03540      57.3000      70.9905
   1418.64514      62.3517      52.8437    1403.02014      57.6479      72.0226
   1418.62988      62.7506      52.3377    1403.00488      57.6912      71.9096
   1418.61462      62.6176      52.6210    1402.98962      57.5963      71.8402
   1418.59936      62.9867      52.9286    1402.97436      57.9364      71.9446
   1418.58410      62.3568      53.1292    1402.95910      57.2470      72.6127
   1418.56884      62.7408      53.3343    1402.94384      57.0324      72.6685
   1418.55358      62.2725      53.4360    1402.92858      57.2045      72.8078
   1418.53833      62.6137      53.0415    1402.91333      57.8170      73.4004
   1418.52307      62.5650      52.8165    1402.89807      57.3198      72.4424
   1418.50781      62.1723      52.5141    1402.88281      57.7699      73.9251
   1418.49255      62.8262      53.9199    1402.86755      57.3195      73.0851
   1418.47729      62.6193      53.2026    1402.85229      57.4284      73.1133
   1418.46203      63.0137      53.4162    1402.83703      56.8449      73.8754
   1418.44677      62.9045      53.9208    1402.82177      58.0378      74.1925
   1418.43151      62.0566      53.4619    1402.80651      57.8800      74.4026
   1418.41625      61.7864      54.5718    1402.79125      57.6625      74.3498
   1418.40100      62.4209      54.1668    1402.77600      57.8810      74.3686
   1418.38574      61.8293      54.2032    1402.76074      57.1777      74.4492
   1418.37048      62.8030      54.2085    1402.74548      57.2284      74.9309
   1418.35522      62.4224      54.3409    1402.73022      58.0177      75.1621
   1418.33996      62.7138      54.6508    1402.71496      57.6005      75.4209
   1418.32470      62.0037      54.8083    1402.69970      57.7729      75.5742
   1418.30944      62.3691      54.8032    1402.68444      57.6401      76.3014
   1418.29418      62.4462      54.6005    1402.66918      57.7028      76.4402
   1418.27893      62.2501      54.9289    1402.65393      57.8132      76.0238
   1418.26367      62.2057      54.9629    1402.63867      57.6422      76.6643
   1418.24841      62.3107      54.8371    1402.62341      58.1954      76.7910
   1418.23315      62.2207      54.8229    1402.60815      57.5365      77.0137
   1418.21789      62.0824      55.1556    1402.59289      58.3880      76.9685
   1418.20263      61.5745      55.2825    1402.57763      57.1960      77.4433
   1418.18737      61.9600      55.3649    1402.56237      57.6183      77.2758
   1418.17211      61.9837      55.6062    1402.54711      57.4338      77.4698
   1418.15686      62.0122      55.8030    1402.53186      58.2507      78.0229
   1418.14160      62.1066      55.8600    1402.51660      58.1107      78.3375
   1418.12634      62.0053      55.8011    1402.50134      58.3897      78.2062
   1418.11108      61.8029      56.3278    1402.48608      58.1706      78.7475
   1418.09582      62.2367      56.2273    1402.47082      57.9627      78.3158
   1418.08056      61.6063      56.7163    1402.45556      58.4848      77.8567
   1418.06530      62.2115      56.3522    1402.44030      57.9421      79.3044
   1418.05004      61.9341      56.5985    1402.42504      58.6055      79.3995
   1418.03479      62.3080      57.0002    1402.40979      57.7804      79.2341
   1418.01953      62.2430      56.8497    1402.39453      58.2704      78.9785
   1418.00427      61.6164      56.6218    1402.37927      58.6058      79.2144
   1417.98901      62.2192      57.1329    1402.36401      58.6142      79.6861
   1417.97375      62.2647      56.9505    1402.34875      58.0152      80.0347
   1417.95849      61.7170      57.1191    1402.33349      58.7614      80.3277
   1417.94323      61.7135      57.3258    1402.31823      58.5705      80.8824
   1417.92797      61.0875      57.5831    1402.30297      58.7357      81.3400
   1417.91271      61.4079      57.3596    1402.28771      58.2392      81.2251
   1417.89746      61.2619      57.4778    1402.27246      58.6978      81.4884
   1417.88220      61.9509      57.8730    1402.25720      58.6245      81.4197
   1417.86694      61.5878      58.0099    1402.24194      58.8252      81.9379
   1417.85168      61.9734      58.3543    1402.22668      58.5992      82.9488
   1417.83642      62.2431      58.4555    1402.21142      58.8926      81.8967
   1417.82116      61.4753      58.6986    1402.19616      58.9369      82.7348
   1417.80590      61.6174      57.9895    1402.18090      58.5825      82.6505
   1417.79064      61.1757      58.6101    1402.16564      58.8371      82.8015
   1417.77539      61.5381      59.0214    1402.15039      58.4027      83.2212
   1417.76013      61.0358      58.6254    1402.13513      59.1986      83.7161
   1417.74487      61.5999      58.8559    1402.11987      59.1806      84.1400
   1417.72961      61.1397      59.4789    1402.10461      58.9121      83.7691
   1417.71435      62.0041      58.7018    1402.08935      58.9079      82.9719
   1417.69909      61.3979      59.4746    1402.07409      58.6351      83.5821
   1417.68383      62.0926      59.0514    1402.05883      58.8797      84.2777
   1417.66857      61.0338      59.9301    1402.04357      59.3989      84.4283
   1417.65332      61.6752      59.5575    1402.02832      59.1483      84.4222
   1417.63806      61.2999      59.5343    1402.01306      59.1371      84.5886
   1417.62280      61.0349      59.3194    1401.99780      59.2873      84.8528
   1417.60754      61.2934      60.1247    1401.98254      59.3211      85.5525
   1417.59228      61.2997      59.6369    1401.96728      59.1569      85.0529
   1417.57702      61.5421      59.6288    1401.95202      59.4944      85.5951
   1417.56176      61.4712      60.1068    1401.93676      59.3688      85.2105
   1417.54650      61.4663      60.2827    1401.92150      59.7660      85.0783
   1417.53125      61.4131      60.2658    1401.90625      59.4512      86.2079
   1417.51599      61.0644      60.8837    1401.89099      59.7361      87.0276
   1417.50073      61.1818      60.4660    1401.87573      59.5769      86.7822
   1417.48547      61.6052      60.7140    1401.86047      59.2897      86.2353
   1417.47021      61.5549      60.7847    1401.84521      59.5537      86.6159
   1417.45495      61.0092      60.6508    1401.82995      59.4854      87.0507
   1417.43969      61.6268      61.0857    1401.81469      59.9787      86.8846
   1417.42443      61.0507      60.9912    1401.79943      59.2558      87.5402
   1417.40917      61.9273      61.1816    1401.78417      59.3739      86.3971
   1417.39392      61.3884      61.8314    1401.76892      59.3440      87.0830
   1417.37866      61.0120      62.2713    1401.75366      59.7297      87.4122
   1417.36340      61.2151      61.5060    1401.73840      60.0893      87.8972
   1417.34814      61.3895      61.3790    1401.72314      59.6012      87.3323
   1417.33288      60.8546      61.4201    1401.70788      60.0570      89.2104
   1417.31762      61.0174      62.7062    1401.69262      59.7187      88.8921
   1417.30236      61.0101      61.5340    1401.67736      60.2437      88.2378
   1417.28710      61.5532      62.1958    1401.66210      59.8993      89.0035
   1417.27185      61.5789      62.0017    1401.64685      60.4583      88.6472
   1417.25659      61.3080      61.9212    1401.63159      59.9382      89.3443
   1417.24133      60.5564      62.8313    1401.61633      59.1722      89.1767
   1417.22607      61.2237      62.3238    1401.60107      59.8608      88.6101
   1417.21081      61.2074      63.0484    1401.58581      60.3684      90.5647
   1417.19555      61.3055      62.9247    1401.57055      59.9868      89.7761
   1417.18029      60.7363      62.6199    1401.55529      59.9930      90.0691
   1417.16503      61.0715      62.6020    1401.54003      60.2920      89.0371
   1417.14978      60.8884      63.1386    1401.52478      60.0456      89.5072
   1417.13452      60.7626      63.3469    1401.50952      60.4925      90.6227
   1417.11926      60.4440      63.6589    1401.49426      60.0682      89.3969
   1417.10400      60.5224      63.1755    1401.47900      59.8346      90.7339
   1417.08874      61.0944      63.0324    1401.46374      60.1946      90.3736
   1417.07348      60.7023      62.8559    1401.44848      60.2273      91.2988
   1417.05822      60.7969      63.3851    1401.43322      59.7179      91.4061
   1417.04296      60.3196      63.3226    1401.41796      59.9455      91.5336
   1417.02771      60.8564      62.9679    1401.40271      59.7935      91.3954
   1417.01245      60.5052      63.4898    1401.38745      59.8857      90.9391
   1416.99719      60.5507      64.0293    1401.37219      59.9318      91.1555
   1416.98193      60.0395      64.2357    1401.35693      60.7675      91.2933
   1416.96667      60.6647      63.1948    1401.34167      60.2223      91.4684
   1416.95141      59.8630      64.0742    1401.32641      60.1218      91.6087
   1416.93615      60.7758      63.9917    1401.31115      60.2917      92.1810
   1416.92089      59.9119      64.1636    1401.29589      59.9648      92.0603
   1416.90563      59.9771      64.2532    1401.28063      59.3066      91.8522
   1416.89038      60.1349      63.9431    1401.26538      59.4313      91.5697
   1416.87512      59.8845      64.0965    1401.25012      59.8378      91.7580
   1416.85986      60.3987      63.8477    1401.23486      59.9980      91.7804
   1416.84460      60.5252      64.4701    1401.21960      59.4437      92.5048
   1416.82934      60.3460      64.2294    1401.20434      60.2505      91.7185
   1416.81408      60.2433      64.4349    1401.18908      59.3990      92.4266
   1416.79882      60.4647      64.3328    1401.17382      59.7115      91.1583
   1416.78356      59.5812      64.4849    1401.15856      59.7511      90.7527
   1416.76831      59.7238      64.7633    1401.14331      59.4037      92.2390
   1416.75305      59.5880      65.5759    1401.12805      59.2262      91.5119
   1416.73779      60.2685      64.8807    1401.11279      59.5635      91.8048
   1416.72253      59.9473      63.9520    1401.09753      59.1191      92.8224
   1416.70727      59.2619      64.6566    1401.08227      59.0679      92.3161
   1416.69201      59.9876      64.5362    1401.06701      59.5321      92.2374
   1416.67675      59.5176      64.3602    1401.05175      59.4224      92.0225
   1416.66149      59.7757      65.3630    1401.03649      59.8156      91.8882
   1416.64624      59.5206      64.7853    1401.02124      58.9512      91.4795
   1416.63098      59.6477      65.1223    1401.00598      59.4735      91.9041
   1416.61572      59.1300      64.3246    1400.99072      59.0860      91.5709
   1416.60046      59.0770      64.1728    1400.97546      58.8205      92.3067
   1416.58520      59.5379      64.7910    1400.96020      58.9647      92.3919
   1416.56994      59.2435      64.2993    1400.94494      58.5429      91.7172
   1416.55468      59.1072      65.0367    1400.92968      59.0222      92.2886
   1416.53942      58.7132      64.9605    1400.91442      58.2522      92.7562
   1416.52417      58.7851      65.4227    1400.89917      58.3993      91.7293
   1416.50891      58.2615      64.8160    1400.88391      58.5734      92.2540
   1416.49365      58.7896      65.3299    1400.86865      58.2876      92.7752
   1416.47839      58.1202      64.6587    1400.85339      58.1261      91.3547
   1416.46313      58.8778      65.2061    1400.83813      57.7527      92.2674
   1416.44787      58.6827      65.1108    1400.82287      58.0502      91.6663
   1416.43261      58.2111      65.2933    1400.80761      58.2918      91.5380
   1416.41735      57.9580      64.8411    1400.79235      57.7598      92.2119
   1416.40209      57.4199      64.8498    1400.77709      57.4482      92.2810
   1416.38684      58.5738      64.9474    1400.76184      57.3950      91.1018
   1416.37158      57.1958      64.5698    1400.74658      57.4513      90.6939
   1416.35632      57.5599      64.6235    1400.73132      56.9234      91.2975
   1416.34106      57.8421      64.8306    1400.71606      56.9789      91.5155
   1416.32580      58.2251      64.2446    1400.70080      56.5461      91.3735
   1416.31054      57.0831      64.1478    1400.68554      57.2079      91.1386
   1416.29528      57.6156      64.2359    1400.67028      56.5916      91.0016
   1416.28002      57.2041      63.8830    1400.65502      56.5635      90.3707
   1416.26477      56.8047      64.8807    1400.63977      56.4459      90.0497
   1416.24951      57.1085      64.2863    1400.62451      56.2826      90.2775
   1416.23425      57.4295      64.3493    1400.60925      56.0487      90.0042
   1416.21899      57.2622      64.2199    1400.59399      56.1029      90.2206
   1416.20373      56.5348      64.4038    1400.57873      56.2203      89.8106
   1416.18847      56.2122      63.9596    1400.56347      55.7965      89.5832
   1416.17321      56.6938      64.2223    1400.54821      55.7334      89.1681
   1416.15795      56.1389      63.9327    1400.53295      55.4123      89.7563
   1416.14270      55.8105      63.5753    1400.51770      55.4511      89.0250
   1416.12744      56.2292      63.1985    1400.50244      55.4253      89.3275
   1416.11218      56.2825      63.7535    1400.48718      55.2086      88.8278
   1416.09692      55.9604      63.4200    1400.47192      54.9480      88.6039
   1416.08166      56.0177      63.6494    1400.45666      53.9793      88.5058
   1416.06640      55.5854      62.9933    1400.44140      54.1881      88.2569
   1416.05114      55.3728      62.7065    1400.42614      53.8167      87.7976
   1416.03588      55.9033      63.1006    1400.41088      54.2545      88.2449
   1416.02062      55.2464      62.6589    1400.39562      53.7175      86.7463
   1416.00537      55.2559      62.7179    1400.38037      54.1631      87.3735
   1415.99011      54.4688      62.9628    1400.36511      53.1904      86.8160
   1415.97485      55.4036      63.3469    1400.34985      53.0504      87.3029
   1415.95959      54.6571      62.8218    1400.33459      52.5009      86.1054
   1415.94433      54.7015      62.0443    1400.31933      52.5878      86.0955
   1415.92907      54.4435      62.5374    1400.30407      52.6595      85.7272
   1415.91381      53.7859      61.7981    1400.28881      51.9505      85.1142
   1415.89855      53.8810      61.8545    1400.27355      52.3245      86.0311
   1415.88330      53.6770      61.6282    1400.25830      52.0194      85.2911
   1415.86804      53.7228      61.1009    1400.24304      51.5912      85.1831
   1415.85278      53.6059      61.4942    1400.22778      51.2293      85.1097
   1415.83752      52.7216      61.0405    1400.21252      51.5439      84.5732
   1415.82226      53.4862      61.0502    1400.19726      51.1471      83.8820
   1415.80700      53.0164      60.8099    1400.18200      50.9529      83.3509
   1415.79174      52.5193      60.5307    1400.16674      50.9674      83.1499
   1415.77648      52.5738      60.8957    1400.15148      50.4348      83.2750
   1415.76123      52.2677      60.6199    1400.13623      50.0260      82.1678
   1415.74597      52.0605      59.6460    1400.12097      49.9671      82.2956
   1415.73071      51.6167      60.0132    1400.10571      49.9216      83.1833
   1415.71545      51.5970      59.6706    1400.09045      49.5422      81.0131
   1415.70019      51.5347      59.7413    1400.07519      49.1990      81.6787
   1415.68493      51.7067      59.4882    1400.05993      48.8132      81.6791
   1415.66967      51.5377      59.4246    1400.04467      48.6974      81.0207
   1415.65441      50.7106      58.7466    1400.02941      48.6013      80.4718
   1415.63916      50.6637      58.4283    1400.01416      48.5463      80.6207
   1415.62390      50.7482      58.3026    1399.99890      47.9061      80.1369
   1415.60864      50.2046      58.0504    1399.98364      47.6360      79.6167
   1415.59338      50.8771      58.0394    1399.96838      47.8495      78.8099
   1415.57812      49.8523      57.7042    1399.95312      46.8822      79.3223
   1415.56286      49.7573      57.5820    1399.93786      46.5435      78.6982
   1415.54760      49.4807      57.2927    1399.92260      46.4693      77.9295
   1415.53234      49.1927      56.8396    1399.90734      46.2817      77.6014
   1415.51708      49.0776      56.7316    1399.89208      46.0656      77.3977
   1415.50183      49.3164      56.5759    1399.87683      46.2455      77.2813
   1415.48657      48.6684      56.6843    1399.86157      45.4925      76.6240
   1415.47131      48.5354      56.4342    1399.84631      45.5256      75.5621
   1415.45605      48.1491      56.0535    1399.83105      45.0133      76.0126
   1415.44079      48.3203      55.4485    1399.81579      44.9318      75.0887
   1415.42553      47.4538      55.0738    1399.80053      44.5858      74.9454
   1415.41027      47.2658      55.4598    1399.78527      44.6493      75.6344
   1415.39501      47.5250      55.3857    1399.77001      44.4232      74.5675
   1415.37976      47.1344      54.7311    1399.75476      43.6856      74.2364
   1415.36450      46.8066      54.6163    1399.73950      43.8308      73.5012
   1415.34924      47.1416      54.3435    1399.72424      42.9037      72.3760
   1415.33398      46.4640      53.7204    1399.70898      43.1077      72.5950
   1415.31872      46.1273      54.0690    1399.69372      42.3970      72.4083
   1415.30346      45.5098      53.1889    1399.67846      42.6092      72.3920
   1415.28820      45.7923      53.0559    1399.66320      41.9421      71.5578
   1415.27294      45.4988      52.6863    1399.64794      41.6879      71.0484
   1415.25769      45.2753      52.3126    1399.63269      41.5159      70.2217
   1415.24243      45.1645      52.0247    1399.61743      41.1152      70.0494
   1415.22717      44.8391      51.8593    1399.60217      40.8977      69.1912
   1415.21191      44.0215      51.5200    1399.58691      41.0799      69.4985
   1415.19665      44.1858      51.1234    1399.57165      40.5966      68.7571
   1415.18139      43.8999      50.8655    1399.55639      40.0705      68.7156
   1415.16613      43.8085      50.7870    1399.54113      39.7685      67.2578
   1415.15087      44.1478      50.5440    1399.52587      39.6333      67.7552
   1415.13562      43.7170      50.1364    1399.51062      39.7715      67.3703
   1415.12036      42.8383      50.0217    1399.49536      39.1962      66.5060
   1415.10510      42.7342      49.7230    1399.48010      39.4345      66.8622
   1415.08984      42.8818      50.0698    1399.46484      38.7864      66.3340
   1415.07458      42.4229      49.3692    1399.44958      38.6925      65.6465
   1415.05932      42.2040      49.0623    1399.43432      38.3861      65.0636
   1415.04406      41.9510      48.3734    1399.41906      38.7658      64.8873
   1415.02880      41.6180      48.6588    1399.40380      37.7524      64.3670
   1415.01354      41.3771      48.1906    1399.38854      37.5895      64.2188
   1414.99829      41.4015      47.5178    1399.37329      37.2594      63.4896
   1414.98303      41.1060      47.6652    1399.35803      37.1772      62.6927
   1414.96777      40.4861      47.0569    1399.34277      36.7601      63.1864
   1414.95251      40.4624      47.5367    1399.32751      36.9333      62.2764
   1414.93725      40.0414      46.8519    1399.31225      36.4983      61.5221
   1414.92199      40.0408      46.4829    1399.29699      36.3023      61.6293
   1414.90673      40.1467      46.2220    1399.28173      35.9531      61.7882
   1414.89147      39.6201      46.0830    1399.26647      35.8865      60.7431
   1414.87622      38.9991      45.6056    1399.25122      35.2438      60.1964
