#     FILENAME=Skynet_59007_gl16_45080_54664.A.spect.cal.txt
#     BASENAME=Skynet_59007_gl16_45080_54664
#      CONTROL=SKYNET
#     PROJCODE=Skynet_59007_gl16_45080
#     DATAROOT=/raid/scratch/cyborg/SkynetData
#      DATADIR=/raid/scratch/cyborg
#     DATADIR2=/raid/scratch/cyborg/SkynetData/Skynet_59007_gl16_45080/Cyborg
#     SCANNAME=2018_05_24_20
#     SRC_NAME=gl16
#     OBSERVER=reichart_2118
#     DATE_OBS=2020-06-07T04:27:59.240
#        OBSID=45080
#      SCANNUM=54664
#          MJD=59007.1861023
#          UTC=16079
#     SCANTYPE=track
#     DATAMODE=HIRES
#     RECEIVER=Rx1_2
#      OBSFREQ=1395.0000
# Actual_FREQ1=1421.8800,
# Actual_FREQ2=1406.2550
#    LO1Tuning=6856.2600
#     RFFILTER=1355_1435
#        OBSBW=-15.6250
#     EFFBANDW=15.6250
#        NCHAN=1024
#    STARTCHAN=51
#     STOPCHAN=972
#         TINT=0.3000
#         TBIN=0.00013107
#       ACCLEN=2048 
#     DURATION=17.40
#     EXPOSURE=2.10
#        FOCUS=37.071
#       RA,DEC=18:20:05.33, -15:01:22.36
#      RA(deg)=274.96300
#     DEC(deg)=-15.02087
#   WIDTH(deg)=0.0087x0.0015
#    AZIM(deg)=143.7492
#    ELEV(deg)=28.5566
#     COORDREF=LNG_LAT
#         HREF=16.0000
#         VREF=0.0000
#      RADESYS=FK5
#       OFFSYS=RADEC
#      EQUINOX=2000.00
#     IFATTENS=22.00, 6.00
#   BALANCELEV=1.200 
#   POWER_XLYR=[1.15, 1.15] 
#       VELDEF=RADI-OBS 
#     VELOCITY=0.000 
#         NPOL=2 
#      POLMODE=Linear 
#      POLTYPE=XXYY 
#      WARNING=None 
#     NOISECAL=HI 
#       PRECAL=2 
#      POSTCAL=2 
#     CRYOTEMP=15 
#      BOXTEMP=33 
#         TSYS=XX1:54.22, YY1:52.40
#         TSYS=XX2:49.26, YY2:57.83
#         TCAL=XX1:9.17, YY1:10.07
#         TCAL=XX2:9.16, YY2:9.99
# Calibrated spectra 
#                
#                
#Freq1(MHz)         XX1          YY1   Freq2(MHz)       XX2         YY2 
   1428.91430      27.1871      32.6385    1413.28930      29.1852      42.9989
   1428.89904      27.1944      33.1067    1413.27404      29.1601      43.5199
   1428.88378      27.2690      33.0881    1413.25878      29.4622      43.4071
   1428.86853      27.2492      33.3451    1413.24353      29.1821      43.7375
   1428.85327      27.2970      33.1657    1413.22827      29.5899      44.3130
   1428.83801      27.6447      33.3701    1413.21301      29.9239      43.4796
   1428.82275      27.6362      33.7746    1413.19775      30.1806      44.2340
   1428.80749      27.6042      34.2900    1413.18249      30.2523      44.6836
   1428.79223      27.7308      34.2174    1413.16723      30.2548      44.4980
   1428.77697      28.0138      34.3875    1413.15197      30.5703      45.1486
   1428.76171      28.1875      34.9329    1413.13671      31.1696      45.3281
   1428.74646      28.3527      34.9290    1413.12146      31.3619      45.5609
   1428.73120      28.0928      35.0496    1413.10620      31.1645      46.1753
   1428.71594      28.3309      35.2621    1413.09094      31.4657      45.9933
   1428.70068      28.3047      35.5790    1413.07568      31.6379      46.2244
   1428.68542      28.5242      35.4445    1413.06042      31.3543      46.6191
   1428.67016      28.8622      35.8702    1413.04516      31.9423      47.1013
   1428.65490      28.8040      36.2063    1413.02990      32.0806      46.6072
   1428.63964      28.8996      36.2948    1413.01464      32.4662      47.4685
   1428.62438      28.8161      36.1755    1412.99938      32.4234      47.0686
   1428.60913      29.0732      36.7542    1412.98413      32.7033      47.3494
   1428.59387      29.0000      37.0561    1412.96887      32.5865      48.0404
   1428.57861      29.4716      37.6635    1412.95361      33.0287      47.8559
   1428.56335      29.3927      37.4396    1412.93835      32.9226      48.1654
   1428.54809      29.7872      37.7529    1412.92309      33.0973      48.8155
   1428.53283      29.6235      37.8806    1412.90783      33.2868      48.6803
   1428.51757      29.6607      38.2996    1412.89257      34.0442      49.2031
   1428.50231      29.9127      38.1572    1412.87731      33.5353      48.7730
   1428.48706      29.8431      38.6321    1412.86206      33.9811      49.1841
   1428.47180      30.1169      38.8835    1412.84680      34.1554      49.4433
   1428.45654      30.1001      38.8300    1412.83154      34.2077      49.7613
   1428.44128      30.5377      39.2120    1412.81628      34.4149      50.0734
   1428.42602      30.9266      39.3440    1412.80102      34.5380      50.2024
   1428.41076      30.9404      39.6267    1412.78576      35.0443      50.8922
   1428.39550      30.9357      39.7279    1412.77050      35.0466      51.2766
   1428.38024      31.2380      40.2371    1412.75524      35.4869      51.3153
   1428.36499      31.2055      40.3712    1412.73999      35.3877      51.5128
   1428.34973      31.6463      40.8981    1412.72473      35.7494      51.5627
   1428.33447      31.3258      41.2889    1412.70947      35.8871      52.2247
   1428.31921      31.6966      41.3665    1412.69421      36.1049      52.2121
   1428.30395      31.6593      41.4604    1412.67895      36.0184      52.4298
   1428.28869      31.9978      41.8370    1412.66369      36.5720      52.5238
   1428.27343      32.0550      42.3666    1412.64843      36.1706      53.1249
   1428.25817      31.9834      42.4684    1412.63317      36.6862      53.3208
   1428.24292      32.1369      42.6963    1412.61792      37.0135      53.2415
   1428.22766      32.2507      43.0214    1412.60266      36.8395      53.2842
   1428.21240      32.6668      42.9672    1412.58740      37.2172      53.8700
   1428.19714      33.1407      43.5996    1412.57214      37.0810      53.9587
   1428.18188      33.0552      43.5403    1412.55688      37.6738      54.0564
   1428.16662      33.2923      44.1040    1412.54162      37.3967      54.8973
   1428.15136      33.4297      44.4148    1412.52636      37.9046      54.3665
   1428.13610      33.4130      44.2297    1412.51110      37.9652      54.2620
   1428.12084      33.6912      44.5548    1412.49584      38.2058      55.4780
   1428.10559      33.4786      45.1780    1412.48059      38.3237      54.9587
   1428.09033      33.9235      45.0336    1412.46533      38.8851      55.9568
   1428.07507      34.4674      45.7276    1412.45007      38.4901      55.4469
   1428.05981      34.3053      45.8842    1412.43481      38.6879      56.1454
   1428.04455      34.3709      45.8313    1412.41955      38.7657      56.5057
   1428.02929      34.2386      46.4138    1412.40429      39.3365      56.9812
   1428.01403      34.4343      46.2500    1412.38903      39.5511      56.5127
   1427.99877      34.7534      46.9851    1412.37377      39.3436      56.8028
   1427.98352      35.0781      46.7314    1412.35852      39.4782      56.8995
   1427.96826      35.4257      47.2045    1412.34326      39.8926      56.9877
   1427.95300      35.4784      47.4594    1412.32800      40.4807      57.1496
   1427.93774      35.5919      47.7425    1412.31274      40.0574      57.2466
   1427.92248      36.1198      48.1541    1412.29748      40.3548      57.9026
   1427.90722      35.9597      47.9742    1412.28222      40.3704      57.7958
   1427.89196      36.0400      48.5504    1412.26696      40.8939      58.7868
   1427.87670      35.9051      48.9949    1412.25170      40.2447      58.2509
   1427.86145      36.2758      48.8590    1412.23645      40.7274      58.4672
   1427.84619      36.1102      50.1705    1412.22119      40.8091      57.9586
   1427.83093      36.5678      49.6200    1412.20593      41.3103      58.7886
   1427.81567      36.5719      50.0952    1412.19067      41.6030      59.2174
   1427.80041      36.4434      50.1989    1412.17541      41.2424      59.8244
   1427.78515      36.6615      50.5746    1412.16015      41.4594      59.5345
   1427.76989      36.7283      50.7761    1412.14489      41.5750      60.5344
   1427.75463      36.9959      50.8847    1412.12963      42.0541      59.7835
   1427.73937      37.0914      51.3441    1412.11437      41.7981      59.9952
   1427.72412      37.1224      51.5540    1412.09912      42.1146      60.0188
   1427.70886      37.3467      51.8536    1412.08386      41.9489      60.4891
   1427.69360      37.5839      51.8833    1412.06860      42.0555      59.8821
   1427.67834      37.8514      51.6862    1412.05334      42.2911      61.1163
   1427.66308      37.8453      52.3713    1412.03808      42.4444      61.1071
   1427.64782      38.0496      52.3648    1412.02282      42.4972      60.5154
   1427.63256      37.7964      52.8138    1412.00756      42.7096      61.2753
   1427.61730      37.9450      52.9314    1411.99230      42.8663      61.4113
   1427.60205      38.4266      53.6267    1411.97705      43.2420      61.3081
   1427.58679      38.3514      53.0846    1411.96179      42.9183      61.6120
   1427.57153      38.6752      53.1450    1411.94653      43.4158      61.7750
   1427.55627      38.5710      53.7907    1411.93127      43.3327      61.0735
   1427.54101      38.8262      54.4374    1411.91601      43.4302      61.3926
   1427.52575      39.3269      53.6656    1411.90075      43.6403      61.7986
   1427.51049      39.3469      54.8745    1411.88549      43.3082      62.7732
   1427.49523      39.0339      54.4138    1411.87023      43.6426      61.6775
   1427.47998      39.2276      55.0863    1411.85498      44.0147      62.5963
   1427.46472      39.4309      55.3148    1411.83972      44.3190      62.0580
   1427.44946      39.5911      54.8191    1411.82446      44.0642      62.7479
   1427.43420      39.3508      55.7329    1411.80920      44.5215      62.7047
   1427.41894      39.8423      55.5106    1411.79394      44.3185      62.8122
   1427.40368      40.0748      55.7864    1411.77868      44.5606      62.2849
   1427.38842      39.9238      56.0735    1411.76342      44.4606      63.2740
   1427.37316      40.0585      56.0458    1411.74816      44.3013      62.9823
   1427.35791      40.1997      56.2395    1411.73291      44.2082      63.8311
   1427.34265      40.1027      56.6469    1411.71765      44.6216      63.5701
   1427.32739      40.8366      56.5282    1411.70239      44.5881      62.8404
   1427.31213      41.0191      56.8600    1411.68713      45.1780      63.3600
   1427.29687      40.7806      57.1799    1411.67187      44.6871      63.0731
   1427.28161      41.0178      57.1822    1411.65661      44.9072      63.2740
   1427.26635      41.2360      57.2363    1411.64135      44.9915      62.6844
   1427.25109      41.5073      57.6706    1411.62609      45.0384      63.3075
   1427.23583      41.0326      57.6177    1411.61083      45.1317      63.1864
   1427.22058      41.2970      57.5985    1411.59558      45.6343      62.9879
   1427.20532      41.7324      58.2160    1411.58032      45.6945      63.5439
   1427.19006      41.2236      58.0619    1411.56506      45.1477      63.5628
   1427.17480      41.7707      58.1898    1411.54980      45.5143      63.9668
   1427.15954      41.6100      58.5862    1411.53454      45.7204      63.6171
   1427.14428      41.6941      58.6631    1411.51928      45.5164      64.1916
   1427.12902      42.1800      59.1483    1411.50402      45.9728      63.8014
   1427.11376      42.0612      58.5675    1411.48876      45.6682      64.4478
   1427.09851      42.2259      58.8348    1411.47351      45.7717      64.1371
   1427.08325      42.0503      59.7652    1411.45825      45.5980      64.0655
   1427.06799      42.4200      59.2948    1411.44299      45.8801      63.5580
   1427.05273      42.4496      58.6170    1411.42773      45.7804      64.2372
   1427.03747      42.4086      59.4543    1411.41247      45.5653      64.2198
   1427.02221      42.9634      59.0994    1411.39721      46.0890      64.3138
   1427.00695      43.0471      60.2145    1411.38195      45.7192      64.1987
   1426.99169      42.8792      59.9945    1411.36669      46.0914      64.3733
   1426.97644      42.7394      59.2936    1411.35144      46.2418      63.5117
   1426.96118      42.9163      60.0127    1411.33618      46.1520      63.7937
   1426.94592      42.8973      59.9523    1411.32092      46.2363      63.5199
   1426.93066      42.8533      59.6362    1411.30566      46.3930      63.8044
   1426.91540      42.7489      60.3492    1411.29040      46.1081      64.4041
   1426.90014      43.3676      60.1982    1411.27514      46.3470      63.8665
   1426.88488      44.0676      60.7802    1411.25988      46.4059      63.9270
   1426.86962      43.5981      60.1008    1411.24462      46.0163      63.8859
   1426.85437      43.3517      60.9143    1411.22937      46.6200      63.7659
   1426.83911      43.4461      60.6409    1411.21411      46.4343      64.1641
   1426.82385      43.8467      60.4596    1411.19885      46.3493      63.9023
   1426.80859      43.6930      60.6730    1411.18359      46.4291      63.8190
   1426.79333      43.9931      61.4332    1411.16833      46.7828      64.0822
   1426.77807      43.9707      60.6428    1411.15307      46.6322      63.4611
   1426.76281      43.7306      60.9302    1411.13781      46.2998      63.3464
   1426.74755      44.2173      61.2025    1411.12255      46.8604      63.4582
   1426.73229      44.0233      61.3011    1411.10729      46.3413      63.3050
   1426.71704      44.2053      60.8852    1411.09204      47.2299      63.5132
   1426.70178      44.1116      60.9223    1411.07678      46.8050      63.2971
   1426.68652      44.5031      60.9348    1411.06152      46.5256      64.0216
   1426.67126      44.4791      61.3830    1411.04626      46.6775      63.7746
   1426.65600      44.4803      61.5984    1411.03100      46.8065      63.2564
   1426.64074      44.6180      60.7680    1411.01574      46.9748      63.4839
   1426.62548      44.1987      61.7749    1411.00048      46.9839      63.3494
   1426.61022      45.3245      60.8517    1410.98522      46.8352      63.7971
   1426.59497      45.0240      61.4381    1410.96997      46.5428      63.6660
   1426.57971      44.7741      61.1104    1410.95471      46.3554      62.9101
   1426.56445      44.9842      61.2682    1410.93945      46.7574      62.9626
   1426.54919      45.2652      61.7963    1410.92419      46.8168      63.5226
   1426.53393      45.3038      61.2592    1410.90893      46.4730      62.9089
   1426.51867      45.3109      61.1276    1410.89367      46.9090      62.8764
   1426.50341      45.1030      61.7726    1410.87841      47.3598      63.2133
   1426.48815      45.2909      61.3810    1410.86315      47.1519      62.8304
   1426.47290      45.4942      61.1860    1410.84790      46.8122      62.5063
   1426.45764      45.4045      61.8915    1410.83264      46.9534      62.3457
   1426.44238      45.5536      62.2082    1410.81738      47.0121      62.8164
   1426.42712      45.6113      61.6044    1410.80212      46.9612      63.2806
   1426.41186      45.4306      62.2244    1410.78686      46.6371      62.1819
   1426.39660      45.9360      60.9055    1410.77160      46.9412      62.3328
   1426.38134      45.8040      62.5028    1410.75634      46.7830      62.1761
   1426.36608      45.5881      61.3447    1410.74108      47.2532      62.2233
   1426.35083      45.9636      61.2648    1410.72583      47.1220      62.0179
   1426.33557      45.9487      61.7089    1410.71057      47.1034      62.2056
   1426.32031      46.0533      61.5964    1410.69531      46.6935      61.8018
   1426.30505      46.0347      61.2603    1410.68005      46.8554      61.8661
   1426.28979      46.2262      61.1452    1410.66479      46.8789      61.7487
   1426.27453      45.8486      61.3356    1410.64953      46.5653      61.3483
   1426.25927      46.0974      61.4774    1410.63427      47.2426      61.1566
   1426.24401      46.3707      61.0456    1410.61901      47.0658      61.5821
   1426.22875      46.5314      61.3157    1410.60375      47.3678      61.5607
   1426.21350      46.5472      61.9027    1410.58850      46.7815      61.4628
   1426.19824      46.2531      61.1642    1410.57324      47.1991      61.1748
   1426.18298      46.7852      61.4400    1410.55798      46.9560      61.0503
   1426.16772      46.3106      61.6732    1410.54272      46.9497      60.7817
   1426.15246      47.1422      61.4136    1410.52746      46.8784      60.6857
   1426.13720      46.7270      61.6946    1410.51220      46.7789      60.2890
   1426.12194      46.9157      61.3008    1410.49694      46.8561      60.9019
   1426.10668      47.0115      61.4517    1410.48168      46.8897      60.5176
   1426.09143      47.0050      61.0870    1410.46643      46.6464      60.4298
   1426.07617      47.3791      61.0830    1410.45117      47.0267      60.0767
   1426.06091      47.0473      61.5683    1410.43591      47.1220      60.0252
   1426.04565      47.0796      61.3142    1410.42065      46.7651      60.1206
   1426.03039      46.6670      60.7356    1410.40539      46.4958      60.2065
   1426.01513      47.2217      60.5036    1410.39013      46.7624      60.2216
   1425.99987      47.5113      60.7128    1410.37487      46.9977      59.5790
   1425.98461      47.2667      60.7537    1410.35961      46.9677      59.7022
   1425.96936      47.6918      60.4539    1410.34436      46.5138      60.3699
   1425.95410      47.8748      60.4420    1410.32910      46.9284      59.3530
   1425.93884      47.6137      60.6901    1410.31384      47.6607      59.1513
   1425.92358      47.4912      59.6517    1410.29858      46.6091      59.5862
   1425.90832      47.7886      60.0709    1410.28332      46.8645      59.3030
   1425.89306      47.4739      60.9861    1410.26806      47.0900      59.0404
   1425.87780      47.5116      60.2796    1410.25280      47.0757      59.6835
   1425.86254      47.8535      60.2666    1410.23754      46.5550      59.3958
   1425.84729      47.3815      59.9783    1410.22229      46.6754      59.0233
   1425.83203      48.0394      60.0445    1410.20703      46.9752      58.2146
   1425.81677      47.7274      60.2980    1410.19177      46.7899      59.2492
   1425.80151      48.0923      60.2222    1410.17651      47.2655      58.0510
   1425.78625      47.7649      60.5127    1410.16125      46.6736      58.2701
   1425.77099      48.5397      59.6729    1410.14599      46.8969      58.1648
   1425.75573      47.4270      59.5425    1410.13073      46.5539      58.0168
   1425.74047      47.9351      59.2256    1410.11547      46.6803      58.0243
   1425.72521      48.7684      59.5592    1410.10021      46.7877      58.1310
   1425.70996      48.1666      59.6211    1410.08496      47.0262      58.0540
   1425.69470      48.0876      59.4687    1410.06970      46.7662      58.2162
   1425.67944      48.5477      59.8362    1410.05444      46.9771      57.5499
   1425.66418      48.8042      59.2541    1410.03918      47.0133      57.4576
   1425.64892      48.5838      59.6425    1410.02392      46.5780      57.3455
   1425.63366      48.7060      59.1186    1410.00866      47.0034      57.2061
   1425.61840      48.7885      59.2744    1409.99340      47.3265      56.8523
   1425.60314      48.7058      59.2122    1409.97814      46.6073      57.3695
   1425.58789      48.9041      59.2456    1409.96289      46.8414      56.8676
   1425.57263      48.9100      58.7696    1409.94763      46.8732      56.7201
   1425.55737      48.9039      58.6503    1409.93237      46.6253      56.0332
   1425.54211      48.9872      59.2908    1409.91711      47.0325      56.9387
   1425.52685      48.6918      58.6919    1409.90185      47.2125      56.3630
   1425.51159      49.5384      58.8379    1409.88659      47.1308      56.3538
   1425.49633      49.4024      58.7778    1409.87133      46.7465      56.1999
   1425.48107      49.5237      59.1501    1409.85607      46.9929      55.7264
   1425.46582      49.2933      58.3985    1409.84082      46.7399      55.8852
   1425.45056      49.4864      58.4371    1409.82556      47.3054      55.5570
   1425.43530      49.4150      58.7007    1409.81030      47.1088      56.0757
   1425.42004      49.2595      58.2068    1409.79504      47.3059      55.5437
   1425.40478      49.2975      58.8093    1409.77978      47.2812      55.7992
   1425.38952      49.1586      58.1826    1409.76452      47.2432      55.5744
   1425.37426      50.2546      58.6355    1409.74926      46.7119      54.9435
   1425.35900      50.2021      58.4361    1409.73400      46.5514      55.4869
   1425.34375      50.3407      58.5063    1409.71875      47.1060      55.1142
   1425.32849      50.2479      58.6571    1409.70349      46.9481      55.3055
   1425.31323      49.9988      58.1933    1409.68823      46.6571      54.8484
   1425.29797      50.7200      57.8363    1409.67297      47.0795      54.6970
   1425.28271      49.9795      57.9662    1409.65771      47.1232      54.5579
   1425.26745      50.5020      57.4040    1409.64245      47.2303      54.2300
   1425.25219      50.2732      57.8510    1409.62719      47.1121      55.1895
   1425.23693      50.1263      57.0910    1409.61193      47.1338      54.4319
   1425.22167      50.0461      57.3704    1409.59667      47.2867      54.1596
   1425.20642      50.5809      57.1472    1409.58142      47.1295      53.7437
   1425.19116      50.0139      57.4486    1409.56616      47.6257      53.7376
   1425.17590      51.0447      56.6989    1409.55090      47.4928      53.5785
   1425.16064      50.9780      57.1573    1409.53564      47.5021      53.5525
   1425.14538      50.4590      57.0086    1409.52038      47.3544      53.7256
   1425.13012      51.1439      57.3397    1409.50512      47.2560      53.9019
   1425.11486      51.3062      57.3680    1409.48986      47.2649      53.5683
   1425.09960      51.3828      56.6793    1409.47460      46.9746      53.2487
   1425.08435      50.6201      56.9882    1409.45935      47.5787      52.7221
   1425.06909      51.5180      56.4814    1409.44409      47.2898      53.2179
   1425.05383      51.0259      56.1849    1409.42883      47.9867      53.4004
   1425.03857      51.0424      56.2467    1409.41357      47.4965      53.2118
   1425.02331      51.3550      56.7536    1409.39831      47.4359      52.8562
   1425.00805      50.9733      57.0836    1409.38305      47.4490      52.5870
   1424.99279      51.6011      56.4256    1409.36779      47.5770      52.3343
   1424.97753      51.3714      56.0375    1409.35253      47.2660      53.0040
   1424.96228      51.9006      56.2816    1409.33728      47.3932      52.6098
   1424.94702      52.1521      56.0440    1409.32202      47.7311      51.9515
   1424.93176      51.9301      56.2892    1409.30676      47.5333      52.5527
   1424.91650      51.8971      55.8577    1409.29150      47.8572      52.1618
   1424.90124      51.9296      56.1656    1409.27624      48.0838      51.5709
   1424.88598      51.8159      55.8926    1409.26098      47.5707      51.4388
   1424.87072      51.9343      55.6073    1409.24572      48.1275      51.9279
   1424.85546      51.6703      55.4871    1409.23046      47.6927      51.3881
   1424.84021      51.7166      55.7005    1409.21521      47.3345      51.6410
   1424.82495      52.1564      55.5178    1409.19995      47.7205      52.0028
   1424.80969      52.3259      55.2865    1409.18469      47.6677      51.2316
   1424.79443      52.8758      55.0859    1409.16943      48.0765      51.9912
   1424.77917      52.6515      55.2519    1409.15417      47.9945      51.7524
   1424.76391      52.0513      55.2577    1409.13891      47.7670      51.1315
   1424.74865      52.8048      55.2532    1409.12365      48.0444      50.8554
   1424.73339      52.9690      54.6973    1409.10839      47.9195      50.4759
   1424.71813      52.7326      54.9125    1409.09313      47.7201      50.6701
   1424.70288      52.5341      54.1739    1409.07788      47.6506      50.8097
   1424.68762      52.7688      55.2260    1409.06262      48.0395      49.8488
   1424.67236      53.0115      54.3763    1409.04736      47.8960      49.7704
   1424.65710      52.8956      54.7428    1409.03210      48.4476      50.7342
   1424.64184      53.1390      54.9436    1409.01684      48.7712      50.5064
   1424.62658      53.0226      54.6115    1409.00158      48.4323      50.0231
   1424.61132      53.6696      54.5200    1408.98632      48.5528      49.8783
   1424.59606      53.3573      53.7304    1408.97106      48.4752      49.7507
   1424.58081      52.7012      53.9581    1408.95581      48.4986      50.3333
   1424.56555      53.8582      53.7866    1408.94055      48.3669      49.9089
   1424.55029      53.3618      54.2758    1408.92529      48.3757      49.7571
   1424.53503      53.3240      53.8038    1408.91003      48.3767      49.7632
   1424.51977      53.6086      53.7996    1408.89477      48.3056      49.5982
   1424.50451      53.6988      54.0490    1408.87951      48.3370      49.1224
   1424.48925      53.9558      53.4085    1408.86425      48.7619      49.5906
   1424.47399      54.0382      53.6054    1408.84899      48.7224      48.9599
   1424.45874      53.5972      53.8366    1408.83374      48.5917      49.3354
   1424.44348      53.6764      53.4422    1408.81848      48.7932      49.1544
   1424.42822      54.0259      53.5205    1408.80322      48.5766      48.9101
   1424.41296      53.7543      53.0440    1408.78796      49.1331      48.6520
   1424.39770      54.2398      53.3925    1408.77270      48.8443      48.7903
   1424.38244      53.9950      53.2712    1408.75744      48.9711      48.5183
   1424.36718      54.1609      52.9331    1408.74218      48.9327      48.7166
   1424.35192      53.3012      52.8409    1408.72692      48.8370      48.5122
   1424.33667      54.8404      53.0108    1408.71167      49.4075      48.7689
   1424.32141      54.7129      52.6553    1408.69641      49.6408      48.3802
   1424.30615      54.5027      52.8176    1408.68115      49.5749      48.2658
   1424.29089      55.0037      52.9432    1408.66589      48.9196      48.6652
   1424.27563      54.6526      52.8039    1408.65063      49.4128      48.5262
   1424.26037      55.0431      52.4892    1408.63537      49.5124      47.8601
   1424.24511      54.7655      52.5126    1408.62011      49.6932      48.5166
   1424.22985      54.1943      52.3277    1408.60485      49.0566      47.5982
   1424.21459      54.5324      52.3793    1408.58959      49.3997      47.8572
   1424.19934      55.0837      51.9098    1408.57434      49.9527      47.5046
   1424.18408      55.4130      51.6097    1408.55908      49.2639      47.7906
   1424.16882      54.9580      52.2903    1408.54382      49.8246      47.6989
   1424.15356      55.5449      51.7265    1408.52856      49.5946      47.7697
   1424.13830      54.7245      52.0288    1408.51330      49.8362      47.2662
   1424.12304      55.2312      51.9853    1408.49804      49.8426      47.4486
   1424.10778      55.2517      52.1430    1408.48278      50.1099      47.5198
   1424.09252      55.6529      51.8781    1408.46752      49.5829      47.3077
   1424.07727      55.1839      51.7016    1408.45227      49.8518      47.0092
   1424.06201      55.2039      51.5058    1408.43701      50.1101      46.6802
   1424.04675      55.7501      51.5778    1408.42175      49.9341      47.1023
   1424.03149      55.9059      51.1598    1408.40649      50.0966      46.7928
   1424.01623      55.5848      51.5845    1408.39123      49.9323      46.6494
   1424.00097      55.8997      51.6965    1408.37597      50.0749      46.3548
   1423.98571      55.7313      51.5868    1408.36071      50.2384      46.7975
   1423.97045      55.7892      51.5831    1408.34545      50.0877      46.5036
   1423.95520      55.4185      51.3847    1408.33020      50.4328      46.3230
   1423.93994      55.7431      50.8747    1408.31494      50.2135      46.4476
   1423.92468      55.1438      51.5650    1408.29968      50.2508      46.3004
   1423.90942      56.3147      51.0144    1408.28442      50.7001      46.3309
   1423.89416      55.9150      50.4684    1408.26916      50.5814      46.1209
   1423.87890      55.6554      50.5934    1408.25390      50.6725      46.1421
   1423.86364      55.4362      51.0218    1408.23864      50.9518      46.1334
   1423.84838      56.6991      50.8524    1408.22338      50.6909      46.2390
   1423.83312      56.3558      50.3179    1408.20812      50.5176      46.1656
   1423.81787      56.1567      51.0491    1408.19287      50.6303      46.0074
   1423.80261      56.2490      50.4924    1408.17761      50.8651      45.6681
   1423.78735      56.4869      49.8884    1408.16235      50.5562      45.6568
   1423.77209      56.7138      50.5773    1408.14709      50.8699      45.8530
   1423.75683      56.5305      50.2596    1408.13183      51.1178      45.6793
   1423.74157      56.6857      49.7064    1408.11657      51.2512      45.4854
   1423.72631      56.7327      50.0043    1408.10131      51.5743      45.4729
   1423.71105      57.3405      50.3728    1408.08605      51.3837      45.6659
   1423.69580      56.4086      50.1703    1408.07080      50.9327      45.4614
   1423.68054      56.5497      49.8707    1408.05554      51.4444      45.1957
   1423.66528      56.8891      49.6893    1408.04028      51.1144      45.2752
   1423.65002      56.2438      48.9823    1408.02502      51.5630      45.1967
   1423.63476      56.3189      49.7783    1408.00976      51.3651      45.2751
   1423.61950      57.3959      49.3969    1407.99450      51.5880      45.2051
   1423.60424      57.3453      49.4545    1407.97924      51.6320      44.9104
   1423.58898      57.2327      49.9184    1407.96398      51.3025      44.6631
   1423.57373      57.5227      48.8024    1407.94873      51.8025      44.9821
   1423.55847      57.2610      49.0694    1407.93347      52.3567      44.9706
   1423.54321      57.1909      49.1929    1407.91821      51.9384      45.1459
   1423.52795      57.2261      49.3736    1407.90295      51.7539      44.4968
   1423.51269      57.6086      49.1113    1407.88769      51.7752      44.9154
   1423.49743      56.9651      48.8524    1407.87243      52.0865      44.5263
   1423.48217      57.1304      49.0774    1407.85717      51.9582      44.3014
   1423.46691      56.3122      48.7433    1407.84191      51.8075      44.6404
   1423.45166      57.6557      47.8745    1407.82666      51.8058      44.7614
   1423.43640      56.9018      48.0664    1407.81140      52.2916      44.4440
   1423.42114      56.6002      48.4410    1407.79614      52.2205      44.5490
   1423.40588      57.4683      47.8653    1407.78088      52.0299      44.4120
   1423.39062      57.2554      48.3746    1407.76562      51.9054      44.5235
   1423.37536      58.0838      48.3545    1407.75036      51.8507      44.3908
   1423.36010      57.7787      48.2363    1407.73510      52.3429      44.0328
   1423.34484      58.1568      48.0071    1407.71984      52.1110      43.9871
   1423.32958      57.4462      48.3515    1407.70458      52.0329      43.6594
   1423.31433      58.0459      47.9159    1407.68933      52.7402      44.4444
   1423.29907      57.8273      48.0160    1407.67407      53.0291      43.8559
   1423.28381      57.7328      48.1128    1407.65881      52.8197      43.5751
   1423.26855      57.7457      48.0312    1407.64355      53.0316      44.0528
   1423.25329      58.0197      47.8155    1407.62829      53.4382      43.9357
   1423.23803      57.9850      47.7013    1407.61303      53.0833      43.6406
   1423.22277      57.4834      47.7098    1407.59777      52.8852      44.0343
   1423.20751      57.4373      47.7672    1407.58251      52.9256      43.6902
   1423.19226      58.1764      47.2084    1407.56726      52.4790      43.4523
   1423.17700      58.0181      47.1606    1407.55200      52.7479      43.7806
   1423.16174      57.5030      46.5648    1407.53674      52.8541      43.6834
   1423.14648      57.9010      47.2304    1407.52148      53.0576      43.7558
   1423.13122      57.7655      46.8453    1407.50622      53.3517      43.5661
   1423.11596      58.0927      46.8997    1407.49096      53.1588      43.7489
   1423.10070      57.9915      46.8702    1407.47570      52.8741      43.7047
   1423.08544      57.6208      46.8074    1407.46044      52.8971      42.7684
   1423.07019      58.4389      46.3769    1407.44519      53.1720      43.1308
   1423.05493      58.2431      47.4458    1407.42993      53.6447      43.1070
   1423.03967      57.9047      46.5655    1407.41467      53.3608      43.2717
   1423.02441      58.3445      46.1948    1407.39941      53.7148      43.2407
   1423.00915      58.2504      46.4593    1407.38415      53.4329      43.0771
   1422.99389      58.0683      46.0988    1407.36889      53.5844      43.1650
   1422.97863      57.7073      46.5469    1407.35363      53.8850      43.2560
   1422.96337      57.6928      46.4472    1407.33837      54.0516      42.9460
   1422.94812      57.9351      46.5518    1407.32312      53.7215      43.2484
   1422.93286      58.2173      46.6196    1407.30786      54.0112      43.0912
   1422.91760      57.6269      45.8298    1407.29260      53.8905      43.0945
   1422.90234      58.0786      45.6731    1407.27734      54.3002      42.9119
   1422.88708      58.0215      45.8377    1407.26208      54.0908      43.2177
   1422.87182      57.8562      45.7611    1407.24682      53.6032      42.7387
   1422.85656      58.0865      46.0739    1407.23156      54.2169      42.6803
   1422.84130      58.0097      45.9029    1407.21630      54.6767      42.8419
   1422.82604      58.0899      45.9217    1407.20104      54.6661      42.8245
   1422.81079      58.4729      46.0878    1407.18579      54.3673      42.9384
   1422.79553      58.5343      45.4671    1407.17053      54.2703      42.7386
   1422.78027      57.8494      45.9276    1407.15527      54.1846      42.7048
   1422.76501      58.4999      45.5640    1407.14001      54.2382      42.4635
   1422.74975      58.5620      45.6086    1407.12475      54.7586      42.9192
   1422.73449      57.9095      45.8351    1407.10949      54.3195      42.4174
   1422.71923      58.8711      45.4198    1407.09423      54.4799      42.9147
   1422.70397      58.1580      45.0933    1407.07897      54.4436      42.8030
   1422.68872      58.6163      44.9997    1407.06372      54.5154      42.3168
   1422.67346      57.7517      45.6568    1407.04846      55.0076      42.6772
   1422.65820      57.9748      44.9386    1407.03320      54.9989      42.6881
   1422.64294      58.2691      45.0024    1407.01794      55.0834      42.5341
   1422.62768      58.1216      44.9257    1407.00268      54.5065      41.9034
   1422.61242      58.0269      44.8224    1406.98742      54.6976      42.9548
   1422.59716      58.0898      44.7223    1406.97216      55.0243      42.2966
   1422.58190      58.1374      44.7734    1406.95690      55.1059      42.5166
   1422.56665      58.8345      44.6928    1406.94165      55.3074      42.6915
   1422.55139      58.3947      44.3550    1406.92639      54.5358      42.6390
   1422.53613      57.9258      44.6174    1406.91113      55.6889      42.5976
   1422.52087      58.8330      44.8291    1406.89587      55.0435      42.3786
   1422.50561      58.1814      44.1238    1406.88061      54.6852      41.9932
   1422.49035      58.4004      44.4481    1406.86535      54.9006      42.7540
   1422.47509      58.2463      44.2240    1406.85009      55.2347      42.5612
   1422.45983      58.6483      44.3728    1406.83483      55.1904      42.6415
   1422.44458      58.8177      44.3922    1406.81958      55.7172      42.3860
   1422.42932      58.4955      44.1416    1406.80432      55.5270      42.7186
   1422.41406      58.3665      43.9971    1406.78906      55.0009      42.5685
   1422.39880      58.1931      44.3622    1406.77380      55.4034      42.2153
   1422.38354      58.5359      44.1647    1406.75854      55.6343      42.4465
   1422.36828      58.0417      44.2994    1406.74328      55.1093      42.3014
   1422.35302      58.4176      43.9920    1406.72802      55.6927      42.4611
   1422.33776      58.6458      43.6599    1406.71276      55.2585      42.5178
   1422.32250      58.7144      43.7147    1406.69750      55.5184      42.5309
   1422.30725      58.4835      44.0482    1406.68225      55.3440      42.5178
   1422.29199      58.7455      43.3643    1406.66699      55.3304      42.4253
   1422.27673      58.6652      43.7023    1406.65173      55.1515      42.2701
   1422.26147      58.5186      43.8421    1406.63647      55.8355      42.1680
   1422.24621      58.6838      43.5429    1406.62121      56.1213      42.6026
   1422.23095      58.8454      43.6132    1406.60595      55.2995      42.8450
   1422.21569      58.9887      43.4209    1406.59069      55.8098      42.1780
   1422.20043      58.4963      43.6578    1406.57543      55.8022      42.2842
   1422.18518      58.1774      43.0906    1406.56018      55.7540      42.6823
   1422.16992      57.9853      43.2763    1406.54492      55.9367      42.7413
   1422.15466      58.0474      43.3958    1406.52966      55.6345      42.7065
   1422.13940      58.3238      43.0898    1406.51440      55.8455      42.2802
   1422.12414      58.2965      43.6259    1406.49914      55.9240      42.4939
   1422.10888      58.4885      43.6645    1406.48388      55.4646      42.8090
   1422.09362      59.2519      43.2653    1406.46862      56.4606      42.6369
   1422.07836      58.8985      42.8886    1406.45336      55.8721      42.6432
   1422.06311      58.3186      43.0718    1406.43811      56.2135      42.7589
   1422.04785      59.0969      43.4305    1406.42285      56.2128      42.4718
   1422.03259      59.0368      42.8835    1406.40759      55.4676      42.9726
   1422.01733      59.2723      43.1320    1406.39233      56.6956      42.4970
   1422.00207      58.6671      43.2803    1406.37707      55.7272      42.5499
   1421.98681      59.0037      42.8443    1406.36181      55.9125      42.9434
   1421.97155      58.9646      43.1776    1406.34655      55.8445      42.9584
   1421.95629      58.0454      42.5430    1406.33129      56.3470      42.3919
   1421.94104      58.7324      42.8110    1406.31604      56.1976      42.7378
   1421.92578      58.9915      42.8742    1406.30078      56.9615      42.5261
   1421.91052      58.5096      42.2395    1406.28552      55.6726      42.9301
   1421.89526      58.8649      42.6606    1406.27026      55.9021      43.7216
   1421.88000      58.8835      42.6886    1406.25500      56.0723      43.7181
   1421.86474      58.9021      42.7165    1406.23974      56.2425      43.7146
   1421.84948      59.1900      42.5008    1406.22448      55.6894      42.8363
   1421.83422      58.4476      42.2222    1406.20922      56.3613      42.9640
   1421.81896      58.4228      42.5296    1406.19396      55.9749      43.1942
   1421.80371      58.6022      42.4365    1406.17871      55.8037      43.5028
   1421.78845      58.3431      42.9424    1406.16345      56.0713      43.0062
   1421.77319      59.3049      42.9186    1406.14819      56.1649      42.7052
   1421.75793      58.2554      42.2558    1406.13293      56.5851      43.2315
   1421.74267      59.2151      42.3439    1406.11767      56.8557      43.2140
   1421.72741      59.2891      42.1013    1406.10241      56.7013      43.4973
   1421.71215      59.0356      42.5552    1406.08715      56.0684      43.0614
   1421.69689      59.4586      42.1770    1406.07189      56.3891      43.0183
   1421.68164      58.5145      42.3774    1406.05664      56.4165      43.0571
   1421.66638      58.9668      42.0207    1406.04138      56.5488      42.8629
   1421.65112      59.0304      42.1944    1406.02612      56.9863      43.6406
   1421.63586      59.2109      42.5571    1406.01086      56.9103      43.7491
   1421.62060      58.9642      42.1917    1405.99560      56.3340      43.3715
   1421.60534      58.9728      41.9990    1405.98034      56.6144      43.5505
   1421.59008      58.5884      42.3536    1405.96508      56.5966      43.7057
   1421.57482      58.8436      42.1265    1405.94982      56.4583      43.5768
   1421.55957      59.2738      42.4635    1405.93457      55.8329      43.6350
   1421.54431      58.8594      41.9956    1405.91931      56.6893      43.8309
   1421.52905      58.8613      42.2595    1405.90405      56.4043      43.8139
   1421.51379      58.8053      41.7395    1405.88879      56.4894      43.7428
   1421.49853      59.0886      41.8435    1405.87353      56.7593      43.8781
   1421.48327      58.7549      42.1975    1405.85827      57.0396      43.5679
   1421.46801      58.7003      42.1682    1405.84301      56.6376      44.1674
   1421.45275      58.9814      41.6925    1405.82775      56.7599      44.0317
   1421.43750      58.4611      42.2823    1405.81250      57.0593      44.2833
   1421.42224      59.1948      41.9615    1405.79724      56.5010      43.7195
   1421.40698      58.8376      41.8131    1405.78198      56.5618      44.6114
   1421.39172      59.2768      42.2328    1405.76672      56.6160      44.2829
   1421.37646      58.9814      41.8560    1405.75146      56.7321      44.4115
   1421.36120      58.9574      41.9924    1405.73620      56.7063      44.2347
   1421.34594      58.6243      41.7751    1405.72094      56.4092      44.2928
   1421.33068      59.4207      42.0265    1405.70568      57.0876      44.3659
   1421.31542      59.5330      42.0579    1405.69042      56.6337      44.9505
   1421.30017      58.6666      41.9154    1405.67517      56.7399      44.6186
   1421.28491      59.3866      42.0792    1405.65991      56.4690      44.5832
   1421.26965      59.3687      41.9485    1405.64465      56.7353      44.4536
   1421.25439      59.3285      41.4901    1405.62939      56.4670      44.0504
   1421.23913      59.2331      41.5909    1405.61413      56.3176      44.7951
   1421.22387      59.4304      41.7647    1405.59887      56.0597      44.6804
   1421.20861      59.2760      42.1431    1405.58361      56.4305      44.8729
   1421.19335      59.1336      41.5733    1405.56835      56.6827      44.8962
   1421.17810      59.1629      42.3401    1405.55310      56.2617      44.8111
   1421.16284      58.9213      41.9350    1405.53784      56.2440      45.0173
   1421.14758      59.1190      41.8809    1405.52258      56.5507      45.1753
   1421.13232      59.0822      41.8736    1405.50732      56.8138      45.2170
   1421.11706      58.9655      42.2628    1405.49206      56.2561      45.0548
   1421.10180      59.5449      42.1281    1405.47680      56.6086      45.4772
   1421.08654      59.2346      41.9534    1405.46154      56.0020      45.5704
   1421.07128      59.5309      41.8640    1405.44628      56.1666      45.2946
   1421.05603      59.3301      42.0004    1405.43103      56.2583      45.5270
   1421.04077      59.5814      42.3306    1405.41577      56.6161      45.5274
   1421.02551      59.0285      42.1810    1405.40051      56.8558      45.7419
   1421.01025      58.8777      42.1638    1405.38525      56.4998      45.7950
   1420.99499      59.5328      41.7924    1405.36999      56.3187      45.6660
   1420.97973      59.2937      42.1109    1405.35473      56.2381      45.8560
   1420.96447      59.1495      41.9032    1405.33947      56.6240      46.0295
   1420.94921      58.9570      41.8737    1405.32421      56.1677      46.2047
   1420.93396      59.5413      42.2658    1405.30896      56.3076      46.3572
   1420.91870      58.8819      41.7794    1405.29370      56.1166      46.1500
   1420.90344      59.4939      41.7595    1405.27844      56.1454      46.3937
   1420.88818      59.7825      42.2152    1405.26318      56.0566      46.5574
   1420.87292      59.3915      42.1030    1405.24792      56.0407      46.3213
   1420.85766      59.6874      42.4838    1405.23266      55.7380      46.4726
   1420.84240      59.1318      42.1774    1405.21740      56.6144      46.9552
   1420.82714      59.1888      42.1454    1405.20214      57.0266      47.0306
   1420.81188      60.1535      42.0566    1405.18688      55.9890      46.9530
   1420.79663      59.7312      42.7712    1405.17163      55.6369      46.8481
   1420.78137      60.2050      42.7387    1405.15637      56.3846      47.2285
   1420.76611      60.2613      42.6640    1405.14111      56.1655      46.9548
   1420.75085      61.3869      43.1340    1405.12585      56.2354      47.5002
   1420.73559      61.9564      43.4982    1405.11059      55.8885      47.2487
   1420.72033      63.5276      45.4031    1405.09533      56.7230      47.5999
   1420.70507      67.3995      47.3653    1405.08007      55.9588      47.2734
   1420.68981      74.4586      51.6562    1405.06481      55.9257      47.4395
   1420.67456      82.3340      57.1038    1405.04956      55.8183      47.2657
   1420.65930      90.7721      62.7589    1405.03430      55.5893      47.3227
   1420.64404      96.9188      67.4548    1405.01904      55.9880      47.6345
   1420.62878     101.1232      68.6466    1405.00378      55.8590      47.7649
   1420.61352      99.8081      67.7355    1404.98852      55.9766      48.0863
   1420.59826      98.5884      67.6897    1404.97326      55.7676      47.9230
   1420.58300     100.7082      69.4818    1404.95800      55.9202      48.0414
   1420.56774     109.3756      75.6006    1404.94274      55.6131      48.3977
   1420.55249     120.6707      82.9996    1404.92749      55.7937      48.8458
   1420.53723     132.4239      88.9319    1404.91223      56.1733      48.3540
   1420.52197     138.7452      93.4040    1404.89697      55.9300      48.4801
   1420.50671     139.7392      94.1981    1404.88171      55.2566      48.6496
   1420.49145     138.5498      94.3234    1404.86645      55.3325      49.0357
   1420.47619     147.3942     100.6848    1404.85119      55.6986      48.3425
   1420.46093     147.8582     101.9212    1404.83593      56.0049      48.7319
   1420.44567     147.5571     100.9002    1404.82067      55.3841      48.9997
   1420.43042     145.4689      99.4842    1404.80542      55.4852      49.4287
   1420.41516     147.9543     101.3631    1404.79016      55.2992      48.8897
   1420.39990     152.5980     106.4888    1404.77490      55.5405      49.0613
   1420.38464     153.8254     103.8666    1404.75964      55.5509      49.5831
   1420.36938     152.1606     106.3003    1404.74438      54.7486      48.9113
   1420.35412     155.7035     106.9324    1404.72912      54.9802      49.6208
   1420.33886     151.9381     103.9934    1404.71386      55.4251      49.8696
   1420.32360     149.3401     101.9942    1404.69860      54.9837      50.0155
   1420.30834     144.1970      98.9704    1404.68334      55.2869      49.7464
   1420.29309     138.2287      95.2035    1404.66809      54.6737      49.4527
   1420.27783     130.4369      91.1350    1404.65283      55.1421      49.6855
   1420.26257     122.5685      84.9598    1404.63757      55.3971      50.7017
   1420.24731     117.5863      81.8789    1404.62231      54.6955      50.4417
   1420.23205     110.7079      77.2268    1404.60705      55.6683      50.8895
   1420.21679     101.2212      70.4299    1404.59179      54.8622      51.1368
   1420.20153      91.4104      63.6969    1404.57653      55.2491      50.6217
   1420.18627      86.4256      60.8183    1404.56127      55.3529      50.6524
   1420.17102      82.6995      58.2398    1404.54602      55.0013      50.8488
   1420.15576      76.6530      55.5154    1404.53076      54.6351      50.5686
   1420.14050      73.3264      52.5108    1404.51550      54.9197      50.6991
   1420.12524      71.5386      51.8783    1404.50024      54.6659      51.4275
   1420.10998      73.3531      52.1951    1404.48498      54.6801      51.2157
   1420.09472      75.4405      53.9120    1404.46972      54.9060      51.3581
   1420.07946      77.9555      56.3128    1404.45446      54.7743      51.4462
   1420.06420      79.3356      57.1577    1404.43920      54.4688      52.0742
   1420.04895      78.3709      56.3725    1404.42395      54.4365      51.8545
   1420.03369      76.6744      55.7062    1404.40869      54.6195      51.5628
   1420.01843      76.1448      55.0673    1404.39343      54.6170      51.8250
   1420.00317      74.1239      54.0640    1404.37817      54.2018      52.1734
   1419.98791      74.5315      53.5920    1404.36291      54.3576      51.3984
   1419.97265      73.9784      53.7653    1404.34765      53.8844      51.9968
   1419.95739      75.3435      54.3331    1404.33239      53.9961      52.7146
   1419.94213      76.5629      54.6307    1404.31713      54.2393      52.6883
   1419.92687      77.3197      56.2683    1404.30187      53.5084      52.5895
   1419.91162      80.1425      58.1311    1404.28662      53.8824      52.8578
   1419.89636      82.7218      60.0300    1404.27136      54.6061      53.0448
   1419.88110      84.8202      61.4018    1404.25610      53.4453      53.0903
   1419.86584      85.3537      61.7570    1404.24084      53.4424      53.2328
   1419.85058      82.2398      60.0419    1404.22558      53.6466      53.5514
   1419.83532      75.2219      55.4823    1404.21032      53.4161      53.5974
   1419.82006      69.6129      51.5866    1404.19506      54.2051      53.6547
   1419.80480      65.1196      47.5943    1404.17980      53.8467      54.1792
   1419.78955      62.4489      45.6523    1404.16455      53.6641      53.9779
   1419.77429      60.7822      45.1580    1404.14929      53.2028      54.2404
   1419.75903      60.7778      44.8888    1404.13403      53.2820      53.8580
   1419.74377      59.6086      44.3282    1404.11877      53.7795      53.9766
   1419.72851      59.3218      44.1008    1404.10351      53.7083      53.8417
   1419.71325      59.0289      44.7838    1404.08825      53.2314      54.0994
   1419.69799      59.2826      44.6995    1404.07299      53.3081      54.7185
   1419.68273      58.1636      44.8101    1404.05773      53.4189      54.2995
   1419.66748      59.0256      44.5773    1404.04248      53.3567      55.0278
   1419.65222      58.1837      44.6015    1404.02722      53.4259      54.9439
   1419.63696      59.1492      44.9088    1404.01196      53.4899      54.8950
   1419.62170      58.5830      44.7540    1403.99670      52.6235      55.1661
   1419.60644      58.6452      44.5957    1403.98144      53.1770      55.5723
   1419.59118      58.9813      44.6291    1403.96618      53.1722      55.7355
   1419.57592      58.2390      44.4391    1403.95092      53.7499      55.5157
   1419.56066      58.8299      44.8065    1403.93566      53.0948      55.3488
   1419.54541      58.3796      44.7477    1403.92041      53.1205      55.6344
   1419.53015      59.0328      44.6291    1403.90515      52.2810      55.6614
   1419.51489      58.2105      45.1648    1403.88989      52.4171      56.3089
   1419.49963      58.0182      45.7065    1403.87463      52.9531      56.6874
   1419.48437      58.3535      45.0076    1403.85937      52.5090      56.4299
   1419.46911      58.3368      45.3432    1403.84411      52.8660      56.1202
   1419.45385      59.0264      45.1333    1403.82885      52.2350      56.2094
   1419.43859      58.8205      45.1288    1403.81359      52.4773      56.7747
   1419.42333      58.8871      45.1672    1403.79833      52.4932      57.0232
   1419.40808      57.9295      45.3135    1403.78308      52.1329      57.1980
   1419.39282      58.4997      45.5965    1403.76782      52.6112      56.9762
   1419.37756      58.8193      45.9149    1403.75256      52.6718      57.1759
   1419.36230      57.8367      45.2383    1403.73730      52.7544      57.7963
   1419.34704      58.2977      45.4584    1403.72204      52.0055      57.4577
   1419.33178      57.8679      45.7050    1403.70678      52.2589      57.8165
   1419.31652      58.4321      45.7004    1403.69152      52.5392      57.9403
   1419.30126      58.0694      45.6711    1403.67626      52.3958      58.0233
   1419.28601      57.9348      45.7940    1403.66101      51.6922      57.7951
   1419.27075      57.8020      46.1050    1403.64575      52.0856      58.1652
   1419.25549      57.9356      45.5549    1403.63049      51.9885      58.5323
   1419.24023      57.7238      45.7568    1403.61523      52.4377      58.9189
   1419.22497      57.7682      46.0859    1403.59997      52.1041      58.7505
   1419.20971      57.9998      45.7691    1403.58471      51.8815      59.2571
   1419.19445      57.7925      45.8481    1403.56945      52.0058      59.1199
   1419.17919      58.1143      46.2919    1403.55419      51.4948      58.8511
   1419.16394      57.7195      46.2853    1403.53894      51.3344      59.3042
   1419.14868      58.1093      46.5667    1403.52368      52.3959      59.0041
   1419.13342      57.8310      46.5456    1403.50842      51.5041      59.9857
   1419.11816      58.0569      46.8947    1403.49316      51.8831      59.6240
   1419.10290      57.8675      46.2851    1403.47790      52.1178      59.8842
   1419.08764      57.9235      46.9769    1403.46264      51.8965      60.0537
   1419.07238      57.6201      46.6457    1403.44738      51.9330      60.0924
   1419.05712      57.7846      46.3804    1403.43212      52.1619      60.6697
   1419.04187      57.4616      47.3443    1403.41687      51.0981      60.5967
   1419.02661      57.2804      46.6387    1403.40161      51.9710      61.1214
   1419.01135      56.9368      46.9935    1403.38635      52.0813      61.2788
   1418.99609      56.9240      46.7109    1403.37109      52.3707      61.1414
   1418.98083      57.6161      46.6753    1403.35583      51.6233      61.5867
   1418.96557      57.8814      47.1978    1403.34057      51.5771      61.7314
   1418.95031      57.7702      47.0987    1403.32531      51.9492      62.2865
   1418.93505      57.6593      47.7912    1403.31005      52.0110      61.7790
   1418.91979      57.2725      47.1598    1403.29479      51.9652      61.7175
   1418.90454      57.3353      46.9863    1403.27954      51.5043      62.6907
   1418.88928      57.3632      47.8821    1403.26428      51.4158      62.1161
   1418.87402      57.3419      47.6588    1403.24902      52.1389      61.9088
   1418.85876      57.7112      47.7644    1403.23376      51.2993      62.6565
   1418.84350      57.5616      48.1419    1403.21850      51.7206      62.1901
   1418.82824      57.2824      47.9898    1403.20324      51.8175      63.4073
   1418.81298      57.0726      48.0131    1403.18798      51.6377      62.9253
   1418.79772      57.8493      47.8202    1403.17272      51.5750      62.7866
   1418.78247      56.7605      47.8946    1403.15747      51.8467      63.6801
   1418.76721      56.4069      47.9041    1403.14221      51.5103      62.7591
   1418.75195      56.9560      48.7572    1403.12695      51.5059      63.4410
   1418.73669      56.9478      47.8791    1403.11169      51.2998      63.7741
   1418.72143      56.8943      48.4718    1403.09643      52.0861      63.7950
   1418.70617      57.0260      48.2830    1403.08117      51.5554      63.5279
   1418.69091      56.8990      48.4212    1403.06591      51.1865      63.9346
   1418.67565      57.3179      48.4863    1403.05065      51.3135      64.7813
   1418.66040      56.6704      48.8858    1403.03540      51.6903      65.0237
   1418.64514      56.8666      48.9108    1403.02014      51.7047      64.7256
   1418.62988      56.5800      49.2267    1403.00488      51.5843      64.4257
   1418.61462      57.1273      49.0983    1402.98962      51.8540      65.1002
   1418.59936      56.5358      49.3014    1402.97436      51.1834      65.4279
   1418.58410      57.3809      49.1485    1402.95910      51.5885      65.4603
   1418.56884      57.2019      49.1640    1402.94384      51.4513      65.7827
   1418.55358      56.5117      49.4926    1402.92858      52.0134      66.0703
   1418.53833      56.8891      49.1922    1402.91333      51.5201      65.6284
   1418.52307      56.4806      49.2184    1402.89807      51.6066      65.9580
   1418.50781      56.7823      49.6108    1402.88281      51.4649      66.9821
   1418.49255      56.5609      49.9943    1402.86755      51.5945      66.3481
   1418.47729      56.5283      49.9436    1402.85229      51.5615      66.7534
   1418.46203      56.5218      49.8532    1402.83703      51.5449      66.8623
   1418.44677      56.1247      49.4046    1402.82177      51.7283      67.2273
   1418.43151      56.3013      49.8114    1402.80651      51.5957      67.2970
   1418.41625      56.5264      50.3334    1402.79125      51.9849      67.0531
   1418.40100      56.4940      49.8928    1402.77600      51.7256      67.5558
   1418.38574      56.4024      50.4162    1402.76074      51.6218      67.6909
   1418.37048      56.7442      49.9009    1402.74548      51.7936      67.5195
   1418.35522      56.7648      50.4123    1402.73022      51.8207      67.9073
   1418.33996      56.0306      50.4530    1402.71496      51.5857      68.7912
   1418.32470      56.4631      50.5795    1402.69970      51.8530      68.4492
   1418.30944      56.2217      51.1705    1402.68444      51.3600      68.7714
   1418.29418      56.4952      50.8854    1402.66918      51.7312      69.0089
   1418.27893      56.2674      50.5343    1402.65393      51.2967      68.8895
   1418.26367      56.2321      51.1007    1402.63867      51.8364      68.7929
   1418.24841      56.4906      50.7934    1402.62341      52.2677      69.8546
   1418.23315      56.4263      51.0273    1402.60815      51.7372      70.0520
   1418.21789      57.0412      50.9490    1402.59289      52.2042      70.2555
   1418.20263      56.4472      50.8615    1402.57763      52.0970      70.0820
   1418.18737      56.4048      51.6218    1402.56237      51.5446      69.3774
   1418.17211      56.2455      51.5945    1402.54711      52.4192      70.0363
   1418.15686      56.0026      51.3573    1402.53186      52.2015      70.7013
   1418.14160      56.2688      51.0606    1402.51660      51.8125      70.8562
   1418.12634      55.9002      51.6834    1402.50134      52.1696      70.8482
   1418.11108      56.1049      51.7645    1402.48608      51.6790      70.3732
   1418.09582      56.1949      52.2525    1402.47082      52.4052      71.2342
   1418.08056      55.7234      52.4522    1402.45556      51.2776      71.6119
   1418.06530      55.9368      52.4478    1402.44030      52.4676      72.0196
   1418.05004      55.8799      52.5915    1402.42504      52.5948      71.6135
   1418.03479      55.8916      52.6380    1402.40979      52.3189      72.2247
   1418.01953      56.4589      52.8667    1402.39453      52.6519      71.8055
   1418.00427      56.5532      52.8458    1402.37927      52.9331      72.2301
   1417.98901      55.8526      52.9370    1402.36401      52.0735      72.4412
   1417.97375      56.0546      52.6836    1402.34875      52.6985      72.7288
   1417.95849      55.7273      52.6804    1402.33349      52.5160      72.4970
   1417.94323      55.7426      53.4118    1402.31823      52.6855      72.5387
   1417.92797      55.4624      52.7231    1402.30297      52.9565      73.4607
   1417.91271      56.2662      53.0615    1402.28771      53.1104      73.6334
   1417.89746      55.7625      53.7894    1402.27246      52.5466      72.8277
   1417.88220      56.1504      53.8704    1402.25720      52.6027      73.2968
   1417.86694      55.9244      53.2494    1402.24194      52.5589      73.2804
   1417.85168      56.1877      54.1175    1402.22668      52.6942      73.3513
   1417.83642      55.9607      53.6239    1402.21142      52.6089      74.7071
   1417.82116      56.1209      54.1113    1402.19616      52.2020      74.7541
   1417.80590      55.3546      53.7265    1402.18090      52.3062      74.5938
   1417.79064      55.9918      54.1456    1402.16564      52.2649      74.6237
   1417.77539      55.7600      54.2084    1402.15039      52.6686      74.0359
   1417.76013      55.2999      53.8940    1402.13513      52.5415      74.9301
   1417.74487      55.2884      54.5038    1402.11987      52.6887      75.3234
   1417.72961      56.0090      54.6089    1402.10461      52.4931      74.9908
   1417.71435      55.4813      55.1618    1402.08935      52.4988      74.8532
   1417.69909      56.2182      54.8333    1402.07409      52.0653      76.3545
   1417.68383      55.8067      54.5664    1402.05883      53.2577      75.7356
   1417.66857      55.2971      54.6033    1402.04357      52.9025      76.6937
   1417.65332      56.1474      55.1072    1402.02832      53.3818      76.3865
   1417.63806      55.4893      55.4280    1402.01306      52.7129      76.2933
   1417.62280      56.0467      55.1639    1401.99780      53.3794      76.4939
   1417.60754      55.8605      55.3268    1401.98254      53.4578      77.5125
   1417.59228      55.4589      55.1952    1401.96728      53.3830      76.2928
   1417.57702      55.7435      55.5037    1401.95202      53.6396      76.8992
   1417.56176      55.8331      54.7746    1401.93676      53.5952      77.6477
   1417.54650      55.4403      55.0178    1401.92150      53.3724      78.3003
   1417.53125      55.8348      55.6806    1401.90625      53.0267      77.7830
   1417.51599      55.8061      55.4863    1401.89099      53.0160      76.7545
   1417.50073      55.0616      56.0018    1401.87573      53.6119      77.7104
   1417.48547      55.4305      56.1618    1401.86047      53.4279      76.8629
   1417.47021      55.7189      56.1154    1401.84521      53.3499      78.1668
   1417.45495      55.7412      55.7449    1401.82995      53.4581      78.5722
   1417.43969      55.9082      56.0416    1401.81469      53.7482      78.3061
   1417.42443      55.9434      56.3160    1401.79943      53.2806      78.8085
   1417.40917      55.2004      57.1817    1401.78417      53.5355      78.4863
   1417.39392      55.7843      56.9586    1401.76892      53.7179      78.8237
   1417.37866      55.3810      56.1840    1401.75366      53.3907      77.4790
   1417.36340      55.3871      56.4462    1401.73840      53.9137      79.3310
   1417.34814      55.2830      57.0516    1401.72314      53.2237      79.0649
   1417.33288      55.5082      56.5721    1401.70788      53.4616      79.1714
   1417.31762      55.9443      57.2734    1401.69262      53.8438      79.8320
   1417.30236      55.3344      57.0015    1401.67736      54.2931      80.3618
   1417.28710      55.5209      57.5151    1401.66210      53.5771      79.7135
   1417.27185      55.2906      57.3673    1401.64685      53.7311      80.0186
   1417.25659      55.3818      57.7280    1401.63159      54.0204      79.3511
   1417.24133      55.1279      57.3223    1401.61633      53.7632      79.6188
   1417.22607      54.7181      57.4266    1401.60107      54.1879      79.6714
   1417.21081      55.7401      58.4972    1401.58581      53.4952      80.7006
   1417.19555      55.0162      57.6656    1401.57055      54.3526      79.7362
   1417.18029      54.7697      58.6442    1401.55529      54.2792      81.2275
   1417.16503      55.3787      57.8395    1401.54003      53.9341      79.6320
   1417.14978      55.2272      57.6953    1401.52478      54.1810      80.8172
   1417.13452      55.2421      57.7644    1401.50952      53.9164      80.8106
   1417.11926      54.8251      58.0325    1401.49426      54.2418      80.6283
   1417.10400      54.6780      58.7176    1401.47900      54.1171      81.1974
   1417.08874      55.4243      57.9159    1401.46374      53.7592      81.3768
   1417.07348      54.9869      58.2243    1401.44848      54.2980      82.1314
   1417.05822      54.9352      58.6849    1401.43322      54.4872      80.7654
   1417.04296      55.2195      58.7469    1401.41796      54.0074      80.6638
   1417.02771      54.7989      58.6937    1401.40271      54.2253      81.4877
   1417.01245      54.5833      58.4899    1401.38745      54.1640      81.2389
   1416.99719      54.8886      58.4603    1401.37219      53.9570      81.9610
   1416.98193      54.8328      58.9642    1401.35693      53.7756      81.3999
   1416.96667      54.9005      58.9731    1401.34167      53.8986      80.7622
   1416.95141      54.5195      58.9619    1401.32641      54.1505      81.6036
   1416.93615      54.4189      59.0574    1401.31115      53.9416      82.2729
   1416.92089      54.8814      59.1145    1401.29589      53.8449      82.1509
   1416.90563      54.3115      58.9349    1401.28063      53.6244      82.2635
   1416.89038      54.5415      59.1279    1401.26538      54.1234      81.9585
   1416.87512      54.2756      58.6569    1401.25012      53.9188      81.9078
   1416.85986      54.1898      59.1578    1401.23486      54.4198      82.0709
   1416.84460      55.0178      59.3949    1401.21960      53.5772      82.0360
   1416.82934      54.3710      59.3139    1401.20434      53.9129      81.9311
   1416.81408      54.1901      59.2788    1401.18908      53.4488      81.7359
   1416.79882      54.3338      59.1386    1401.17382      53.4428      82.2491
   1416.78356      54.2918      59.4741    1401.15856      53.7275      82.8812
   1416.76831      54.3770      59.7340    1401.14331      53.5305      82.3337
   1416.75305      54.8774      59.5155    1401.12805      53.5925      81.8144
   1416.73779      54.5899      59.5846    1401.11279      54.2353      82.6009
   1416.72253      54.2774      59.6118    1401.09753      53.3518      82.2973
   1416.70727      53.6187      59.8730    1401.08227      53.3575      81.9642
   1416.69201      53.7290      59.8097    1401.06701      53.1994      81.9296
   1416.67675      54.3105      59.9215    1401.05175      53.4456      82.7298
   1416.66149      53.3310      59.0591    1401.03649      53.7128      81.9401
   1416.64624      53.5955      59.2227    1401.02124      53.5522      83.2005
   1416.63098      53.7764      60.1361    1401.00598      53.6880      82.3292
   1416.61572      53.4003      59.7522    1400.99072      52.5352      82.3279
   1416.60046      53.2515      59.5318    1400.97546      52.7094      82.9688
   1416.58520      52.8032      59.5249    1400.96020      53.2939      83.2454
   1416.56994      53.3857      59.2228    1400.94494      52.7818      82.4389
   1416.55468      53.1476      59.5045    1400.92968      52.9672      82.2903
   1416.53942      52.9876      59.6917    1400.91442      52.8384      81.8209
   1416.52417      53.1376      59.7845    1400.89917      52.2087      82.0259
   1416.50891      53.1611      59.5910    1400.88391      52.9106      81.9470
   1416.49365      53.0829      59.6463    1400.86865      52.9546      81.7738
   1416.47839      52.7686      59.9750    1400.85339      53.0862      82.3763
   1416.46313      52.6106      59.7155    1400.83813      52.1934      81.3994
   1416.44787      52.8841      59.6870    1400.82287      52.3573      82.0398
   1416.43261      53.0257      59.8806    1400.80761      52.4822      81.8606
   1416.41735      52.7310      59.5597    1400.79235      52.2898      81.7069
   1416.40209      52.4280      59.1359    1400.77709      51.9149      82.1148
   1416.38684      52.5639      59.2119    1400.76184      52.2480      82.5614
   1416.37158      51.8530      59.6866    1400.74658      51.8872      81.9076
   1416.35632      52.1213      59.1969    1400.73132      51.5840      81.3309
   1416.34106      52.1631      60.1214    1400.71606      51.8776      80.7174
   1416.32580      52.3551      59.2887    1400.70080      51.6563      80.6203
   1416.31054      51.9896      59.1327    1400.68554      51.6306      81.2064
   1416.29528      51.8956      59.2495    1400.67028      51.1280      80.6429
   1416.28002      51.6560      59.4809    1400.65502      51.2514      81.1655
   1416.26477      51.8782      59.0511    1400.63977      50.3997      80.8645
   1416.24951      51.8661      59.0118    1400.62451      51.0053      80.3622
   1416.23425      51.5218      59.4020    1400.60925      50.3142      80.4774
   1416.21899      51.4663      58.8657    1400.59399      50.5875      79.9380
   1416.20373      51.0132      59.0264    1400.57873      50.4781      79.8960
   1416.18847      51.5709      58.6112    1400.56347      50.2654      79.1842
   1416.17321      51.3147      58.1405    1400.54821      50.3971      79.6827
   1416.15795      50.9006      58.9692    1400.53295      49.8825      79.1856
   1416.14270      50.1582      58.3273    1400.51770      49.4741      79.4328
   1416.12744      50.2590      58.9262    1400.50244      50.1916      79.1757
   1416.11218      50.2248      58.4577    1400.48718      49.1262      79.5862
   1416.09692      50.2634      58.0597    1400.47192      49.3384      78.9279
   1416.08166      50.2764      58.3536    1400.45666      49.5263      79.4823
   1416.06640      50.2138      58.0462    1400.44140      48.7934      78.7432
   1416.05114      50.1327      57.7354    1400.42614      49.1617      78.3321
   1416.03588      50.2852      58.1782    1400.41088      48.6573      78.4538
   1416.02062      49.3089      57.7640    1400.39562      48.4709      77.7101
   1416.00537      49.9211      57.7991    1400.38037      48.5076      77.2818
   1415.99011      49.4216      57.8876    1400.36511      48.4401      77.8987
   1415.97485      49.0111      57.8700    1400.34985      48.3673      76.7533
   1415.95959      49.1292      56.9459    1400.33459      47.7828      77.6711
   1415.94433      49.0268      57.2181    1400.31933      47.8431      76.8196
   1415.92907      48.9814      56.7346    1400.30407      47.0281      77.2962
   1415.91381      48.4355      57.2109    1400.28881      46.7232      76.2191
   1415.89855      48.3999      56.7509    1400.27355      47.5567      76.5471
   1415.88330      48.6651      57.0085    1400.25830      46.6617      75.7563
   1415.86804      47.9607      56.3222    1400.24304      46.7852      75.2612
   1415.85278      48.2462      56.1520    1400.22778      46.3286      75.6813
   1415.83752      48.1831      56.5514    1400.21252      46.5582      74.8293
   1415.82226      47.8179      56.0694    1400.19726      46.2694      75.0912
   1415.80700      47.7262      55.8665    1400.18200      45.5109      74.3599
   1415.79174      47.5034      55.7684    1400.16674      45.5316      73.7668
   1415.77648      47.5086      55.1284    1400.15148      45.3061      73.3917
   1415.76123      47.0196      55.4718    1400.13623      45.0847      73.3668
   1415.74597      47.1496      55.4160    1400.12097      44.8358      73.1686
   1415.73071      47.2155      54.8705    1400.10571      44.9182      73.1521
   1415.71545      46.2875      54.7334    1400.09045      45.0397      73.0504
   1415.70019      47.0032      55.1631    1400.07519      44.2524      72.1265
   1415.68493      46.2196      54.7536    1400.05993      44.3653      72.9102
   1415.66967      45.9747      54.6889    1400.04467      44.1775      71.6545
   1415.65441      45.6945      54.1348    1400.02941      43.7763      72.0126
   1415.63916      45.5411      53.6244    1400.01416      43.5697      71.2178
   1415.62390      45.7371      53.7352    1399.99890      43.3631      70.5607
   1415.60864      45.5755      53.5843    1399.98364      43.1458      71.0724
   1415.59338      45.3207      53.8005    1399.96838      43.0103      70.4311
   1415.57812      45.0532      53.3610    1399.95312      42.3662      69.9539
   1415.56286      45.0986      52.3544    1399.93786      42.6397      69.7762
   1415.54760      44.8572      53.2883    1399.92260      42.5598      69.1622
   1415.53234      44.4450      52.6020    1399.90734      41.8704      68.8628
   1415.51708      44.1780      52.5244    1399.89208      41.6415      68.4190
   1415.50183      43.9000      52.1523    1399.87683      41.5140      67.5890
   1415.48657      43.9831      52.2815    1399.86157      41.0818      68.2387
   1415.47131      44.0168      51.6776    1399.84631      41.3191      67.5369
   1415.45605      43.1775      51.7246    1399.83105      40.6143      67.1024
   1415.44079      43.4099      51.8879    1399.81579      40.7436      67.0622
   1415.42553      43.5625      51.0508    1399.80053      40.2795      67.2631
   1415.41027      43.0820      50.9411    1399.78527      40.0547      66.6354
   1415.39501      42.7353      50.4714    1399.77001      39.6080      65.4208
   1415.37976      42.3124      50.5712    1399.75476      39.7099      65.6061
   1415.36450      42.2903      50.0060    1399.73950      39.3736      65.5189
   1415.34924      42.1386      50.4256    1399.72424      39.2573      64.9051
   1415.33398      41.4616      49.6336    1399.70898      39.3886      64.6672
   1415.31872      41.9960      49.5983    1399.69372      39.0074      64.3780
   1415.30346      41.5034      49.0104    1399.67846      38.5281      63.6234
   1415.28820      41.1539      49.1727    1399.66320      38.2019      63.4704
   1415.27294      41.0308      48.4101    1399.64794      38.2475      63.4607
   1415.25769      41.1061      48.4863    1399.63269      37.4648      62.7631
   1415.24243      40.5602      48.2990    1399.61743      37.6894      62.6612
   1415.22717      40.8008      48.1909    1399.60217      37.3389      62.0235
   1415.21191      40.3500      48.1713    1399.58691      37.1079      61.6115
   1415.19665      39.9634      47.2040    1399.57165      36.7429      60.9343
   1415.18139      39.6589      47.2276    1399.55639      36.6397      60.5020
   1415.16613      39.8297      46.8837    1399.54113      36.5113      60.4262
   1415.15087      39.1173      47.0289    1399.52587      36.2012      59.6871
   1415.13562      39.1702      46.2166    1399.51062      36.1804      59.4082
   1415.12036      38.8156      46.3281    1399.49536      35.7564      58.9599
   1415.10510      38.5251      46.4344    1399.48010      35.6524      58.9710
   1415.08984      38.7101      45.7563    1399.46484      35.1765      58.4855
   1415.07458      38.3478      45.7758    1399.44958      34.9790      57.8852
   1415.05932      38.0601      45.0495    1399.43432      34.8974      56.9602
   1415.04406      37.7752      45.1030    1399.41906      34.8024      57.5301
   1415.02880      37.4013      44.8362    1399.40380      34.5203      57.4831
   1415.01354      37.3875      44.2531    1399.38854      34.2232      56.9782
   1414.99829      36.9502      43.8781    1399.37329      33.6810      56.3798
   1414.98303      36.9758      43.4710    1399.35803      33.5599      56.6213
   1414.96777      36.7236      43.2945    1399.34277      33.3261      55.1343
   1414.95251      36.6049      43.4984    1399.32751      33.2101      55.2707
   1414.93725      36.2639      43.7684    1399.31225      33.0737      54.7740
   1414.92199      36.0859      42.3890    1399.29699      32.7308      54.6575
   1414.90673      35.9243      42.5820    1399.28173      32.6468      53.9831
   1414.89147      35.6299      42.1656    1399.26647      32.4283      53.6997
   1414.87622      35.5339      42.0431    1399.25122      31.9721      53.1082
